1.000000000000000000e+00 -1.980285000000000073e+00 -3.270371400000000150e+00 -3.821605899999999778e+00 -4.297749699999999784e+00 -3.780798700000000068e+00 -3.131010900000000152e+00 -1.774724699999999933e+00 -1.273215699999999950e+00 -8.171887399999999690e-01 -3.296126999999999807e-01 -3.237918000000000185e-01 -3.038294000000000272e-01 -2.521939500000000001e-01 -2.651838499999999987e-01 -3.346059000000000117e-01 -2.730929500000000010e-01 -1.638130399999999931e-01 -2.383662000000000003e-01 -2.998365000000000058e-01 -1.841832599999999875e-01 -3.253677300000000217e-01 -1.574289100000000052e-01 -2.957620799999999828e-01 -2.832641799999999765e-01 -2.038300200000000006e-01 -2.271360900000000127e-01 -1.753223700000000052e-01 -2.389149700000000043e-01 -2.503757999999999817e-01 -2.623884899999999742e-01 -3.631504700000000030e-01 -3.061335099999999976e-01 -3.048670399999999781e-01 -2.981766900000000220e-01 -2.560449699999999829e-01 -2.398966899999999958e-01 -2.669074699999999800e-01 -2.793201499999999893e-01 -2.686224300000000231e-01 -6.614618199999999781e-02 -2.038107899999999917e-01 -1.764178200000000030e-01 -1.738881399999999966e-01 -4.747738499999999695e-02 -2.192080000000000070e-02 4.871752800000000300e-02 1.242171999999999998e-01 9.538511299999999360e-02 1.730454399999999948e-01 1.294012099999999887e-01 6.023599200000000209e-02 7.027591099999999646e-02 1.236440800000000034e-01 2.970397799999999894e-02 5.269700499999999815e-02 1.164250399999999935e-01 8.817401099999999659e-02 1.383885699999999885e-01 1.376310000000000033e-01 1.219272599999999956e-01 5.222278000000000336e-02 1.827194500000000055e-01 2.337203700000000106e-01 2.315383299999999867e-01 3.067656999999999745e-01 2.488714999999999955e-01 2.117228300000000007e-01 3.663168800000000114e-01 4.763552200000000236e-01 4.338381399999999832e-01 4.109499300000000188e-01 3.647375700000000109e-01 4.104238399999999842e-01 4.882096300000000055e-01 6.151460399999999495e-01 6.809838900000000361e-01 5.789469299999999707e-01 6.922782100000000050e-01 5.575063799999999681e-01 5.791531199999999657e-01 6.315649300000000244e-01 5.446980900000000236e-01 6.586322799999999589e-01 5.582294899999999949e-01 4.887513199999999891e-01 4.957090200000000002e-01 4.198985100000000026e-01 6.530167700000000242e-01 5.208940300000000079e-01 5.190095399999999914e-01 5.517984999999999696e-01 4.810085100000000002e-01 5.367519099999999987e-01 6.279230099999999481e-01 7.533082399999999623e-01 9.732482999999999551e-01 1.157807299999999984e+00 1.156202200000000069e+00 1.359424799999999989e+00 1.588902199999999931e+00 1.886245299999999903e+00 1.951738699999999938e+00 1.807618399999999959e+00 1.752545599999999926e+00 1.660978199999999960e+00 1.459470000000000045e+00 1.276543299999999936e+00 9.830380300000000071e-01 9.434042099999999653e-01 7.572075000000000333e-01 3.099860600000000077e-01 1.774771699999999966e-02 7.478076499999999904e-02 -3.020560400000000048e-02 -6.607653700000000463e-02 8.829711500000000240e-03 -5.705756800000000295e-02 -5.513941599999999665e-02 -9.210476599999999764e-03 -6.207670700000000180e-02 -1.636317300000000030e-01 -5.822569799999999934e-02 -2.984992900000000074e-02 -3.439095699999999978e-02 -4.601292099999999829e-02 -6.637802099999999539e-02 -4.471735300000000135e-02 2.331502000000000019e-01 8.468335500000000460e-01 1.342299499999999979e+00 1.156009400000000076e+00 6.582343600000000183e-01 -2.284932199999999969e-01 -1.211066200000000093e+00 -1.559606499999999896e+00 -1.485072299999999901e+00 -9.654817900000000064e-01 -7.197873799999999767e-01 -1.237799799999999895e+00 -2.497403600000000168e+00
2.000000000000000000e+00 2.266443599999999892e-01 -6.429338799999999576e-01 -1.252132199999999917e+00 -1.726531400000000049e+00 -2.027748299999999837e+00 -2.370703799999999806e+00 -2.451839699999999844e+00 -2.348330199999999923e+00 -2.124123299999999936e+00 -1.593733499999999914e+00 -1.041827999999999976e+00 -7.412844299999999942e-01 -6.138050200000000345e-01 -5.461930200000000291e-01 -4.011322099999999891e-01 -3.510390699999999670e-02 3.483273900000000145e-01 5.066352600000000317e-01 5.391860499999999723e-01 4.916910600000000131e-01 4.481236599999999792e-01 5.170459800000000161e-01 5.247650799999999949e-01 5.198402800000000434e-01 5.825451699999999455e-01 5.487960699999999692e-01 4.886722000000000010e-01 5.234305099999999600e-01 5.665377000000000329e-01 5.657805000000000195e-01 5.286615900000000146e-01 5.327844200000000363e-01 5.915805600000000330e-01 5.094897099999999845e-01 4.571275399999999989e-01 5.689305500000000348e-01 5.679671099999999972e-01 5.069637999999999645e-01 4.629426400000000164e-01 3.983474699999999813e-01 4.481236599999999792e-01 5.149446100000000248e-01 4.639452600000000260e-01 4.588459100000000235e-01 4.621208700000000169e-01 4.279891800000000246e-01 4.372094899999999784e-01 3.726825699999999908e-01 3.566143600000000191e-01 3.560669499999999932e-01 2.669133200000000095e-01 2.640107400000000215e-01 2.630750299999999875e-01 2.958568200000000203e-01 3.205433799999999889e-01 2.266443599999999892e-01 2.306589900000000082e-01 2.713501799999999964e-01 2.102438899999999888e-01 1.572006699999999868e-01 1.058374700000000029e-01 9.007884800000000303e-02 1.762674200000000080e-01 1.466107399999999894e-01 2.474729999999999985e-02 4.543402099999999805e-02 1.295318400000000092e-01 1.843579300000000032e-01 1.697728199999999910e-01 1.153040300000000018e-01 8.570298499999999542e-02 6.531519399999999309e-02 8.922141699999999731e-02 1.162870899999999957e-01 1.363319000000000059e-01 2.065098800000000068e-01 2.359780800000000067e-01 1.920622899999999966e-01 2.092862799999999912e-01 2.873360200000000253e-01 3.474512499999999893e-01 3.690403099999999825e-01 3.841062399999999877e-01 4.897320199999999901e-01 5.192131500000000122e-01 4.481236599999999792e-01 4.794762100000000138e-01 4.879216699999999740e-01 5.237439600000000084e-01 6.297549300000000461e-01 6.091995199999999944e-01 5.661528700000000303e-01 5.975561600000000029e-01 6.086006099999999863e-01 5.855747700000000222e-01 6.091995199999999944e-01 6.369226099999999446e-01 5.948208000000000384e-01 6.100915099999999480e-01 6.586554500000000312e-01 6.897374400000000350e-01 7.326389599999999502e-01 6.917062600000000172e-01 6.777150100000000066e-01 7.132129699999999461e-01 6.696029599999999693e-01 6.891083999999999543e-01 7.575406999999999558e-01 7.334446900000000102e-01 7.694601399999999591e-01 7.904098499999999694e-01 7.120823699999999645e-01 7.548639099999999713e-01 6.696794400000000147e-01 4.156558399999999986e-01 3.675857299999999994e-01 4.325237100000000057e-01 5.133351900000000523e-01 5.546254600000000146e-01 4.252688099999999971e-01 2.669133200000000095e-01 2.057905399999999940e-01 9.470038299999999909e-02 -4.717250900000000136e-02 5.360458399999999679e-02 1.662409099999999917e-01 -4.141621999999999665e-02 -3.069333300000000042e-01 -6.230657200000000451e-01 -1.206357799999999925e+00 -1.887476200000000048e+00 -2.545855599999999885e+00 -3.246632500000000032e+00 -3.937837800000000055e+00 -4.118189300000000053e+00 -3.679445100000000135e+00 -2.758903600000000012e+00 -1.547121799999999991e+00 -8.066982000000000319e-01 2.279133399999999920e-01
2.000000000000000000e+00 -8.930950699999999909e-01 -1.957480000000000109e+00 -2.778438599999999870e+00 -3.127975499999999798e+00 -2.901329599999999953e+00 -2.421912799999999866e+00 -1.817022600000000043e+00 -1.172467699999999891e+00 -6.740731899999999888e-01 -6.238895399999999647e-01 -5.433935699999999924e-01 -8.004009900000000344e-02 2.082036499999999901e-01 2.877137399999999956e-01 3.491335799999999989e-01 3.321775100000000092e-01 3.209385000000000154e-01 2.944147100000000239e-01 2.809370999999999952e-01 3.003953400000000107e-01 2.838422999999999918e-01 2.743373700000000248e-01 3.048843900000000051e-01 3.417996799999999946e-01 3.263774899999999923e-01 2.964920099999999725e-01 3.342039199999999877e-01 3.625519500000000117e-01 3.005657099999999859e-01 2.552147900000000247e-01 2.989261999999999753e-01 2.821690700000000218e-01 2.839428399999999741e-01 1.941305999999999865e-01 1.326420899999999903e-01 1.809553499999999870e-01 1.521807900000000102e-01 2.203345899999999968e-01 2.065430799999999900e-01 6.422547200000000567e-02 5.607259900000000075e-02 8.102532299999999632e-02 4.439076899999999659e-02 -2.510137200000000027e-02 -5.226471099999999842e-02 -5.482194900000000003e-03 -1.674452599999999916e-02 -5.406297200000000081e-02 -1.063041200000000019e-01 -1.607620800000000016e-01 -1.412037700000000062e-01 -1.480111299999999908e-01 -1.075892900000000041e-01 -8.737803500000000667e-02 -1.795768299999999928e-01 -1.745960599999999974e-01 -1.182626299999999936e-01 -8.037652800000000264e-02 -4.515674299999999919e-02 -1.460721199999999963e-03 8.703177499999999178e-03 1.269452700000000059e-02 4.737108599999999975e-02 1.450679300000000116e-01 2.222648100000000071e-01 2.387271099999999924e-01 2.407859900000000053e-01 2.353476899999999983e-01 4.171609000000000012e-01 4.873025300000000115e-01 4.723852599999999735e-01 5.273819299999999988e-01 5.027691800000000377e-01 5.730367200000000549e-01 5.876909500000000453e-01 5.296984200000000031e-01 5.926721700000000537e-01 5.405492200000000524e-01 5.757895499999999833e-01 6.375890199999999508e-01 6.348917899999999559e-01 5.821960699999999544e-01 5.376203299999999796e-01 6.198898600000000148e-01 5.728041299999999669e-01 5.664407700000000379e-01 6.098254300000000017e-01 6.189786900000000536e-01 5.907440699999999545e-01 5.734498900000000177e-01 6.559822100000000100e-01 7.304561499999999707e-01 7.115804500000000310e-01 6.545708500000000374e-01 6.522271299999999883e-01 7.122486000000000095e-01 7.313985200000000519e-01 7.541839599999999866e-01 7.070007600000000059e-01 7.757936199999999616e-01 8.765841500000000064e-01 8.396970799999999846e-01 8.438025399999999898e-01 8.039116699999999671e-01 8.198250999999999733e-01 8.457899500000000126e-01 9.361353999999999509e-01 9.086535399999999818e-01 8.652615900000000249e-01 9.297356599999999638e-01 9.866977700000000295e-01 1.005748099999999923e+00 9.078668100000000241e-01 9.414068100000000383e-01 9.370505900000000166e-01 7.819001199999999763e-01 6.219708299999999745e-01 5.513935399999999598e-01 5.491614299999999504e-01 4.867299099999999878e-01 4.186858700000000155e-01 3.595887700000000020e-01 2.115027999999999908e-01 2.363007599999999986e-02 -1.309481399999999907e-01 -1.548026899999999928e-01 -8.650789100000000342e-02 -2.504681500000000005e-01 -6.306095699999999526e-01 -1.192126199999999914e+00 -1.863551100000000016e+00 -2.401299499999999920e+00 -2.896746799999999844e+00 -3.305832000000000104e+00 -3.711079100000000075e+00 -3.578778100000000073e+00 -2.746405499999999833e+00 -1.692105200000000087e+00 -6.108553899999999981e-01 5.584316799999999859e-02
1.000000000000000000e+00 -1.685960099999999906e-01 -2.346840400000000049e+00 -3.294511799999999990e+00 -4.419904100000000113e+00 -4.405260199999999848e+00 -3.518674799999999880e+00 -2.194086599999999887e+00 -1.568874399999999891e+00 -1.327398499999999926e+00 -3.922651699999999964e-01 -2.093584300000000120e-01 -2.784761299999999884e-01 -2.853172199999999825e-01 -1.078571200000000008e-01 -7.602908099999999836e-02 -9.500467599999999624e-02 -1.379030400000000045e-01 -7.070182199999999750e-02 -1.862546300000000044e-01 -1.893533000000000022e-01 -2.053582700000000094e-01 -1.323381100000000088e-01 -2.254716900000000024e-01 -2.468907499999999922e-01 -1.898066300000000040e-01 -2.249830899999999967e-01 -3.639436099999999730e-01 -4.587598199999999848e-01 -3.678404499999999855e-01 -3.770795499999999856e-01 -4.500361999999999973e-01 -4.889198200000000050e-01 -6.262035700000000427e-01 -5.637364499999999445e-01 -6.337417199999999529e-01 -7.122762599999999944e-01 -6.426208500000000212e-01 -6.520531899999999492e-01 -7.562038500000000107e-01 -7.866224299999999836e-01 -6.780154400000000248e-01 -6.404178499999999552e-01 -4.979708899999999994e-01 -5.443723499999999493e-01 -3.983348299999999731e-01 -2.579688199999999876e-01 -2.093507400000000074e-01 -1.366319199999999900e-01 5.550267900000000094e-03 1.648624900000000004e-01 1.136929400000000062e-01 1.213225599999999960e-01 1.862093599999999904e-01 1.609227799999999875e-01 1.995694100000000026e-01 7.836442000000000407e-02 5.324719099999999927e-02 7.493873299999999349e-02 2.866035599999999794e-01 2.645017299999999905e-01 2.673474499999999865e-01 2.963206500000000188e-01 2.713824000000000236e-01 2.595545100000000160e-01 1.797658699999999943e-01 1.455316000000000110e-01 3.201784500000000033e-01 4.124226500000000017e-01 4.556039000000000061e-01 5.231021300000000540e-01 5.586040300000000292e-01 5.853398699999999844e-01 6.253378600000000231e-01 6.630275599999999603e-01 7.803259299999999454e-01 7.563001900000000388e-01 8.795782699999999954e-01 8.186214299999999833e-01 7.289888399999999713e-01 7.354489800000000299e-01 7.749550600000000289e-01 7.981055299999999519e-01 7.753139300000000400e-01 7.617840000000000167e-01 6.121993500000000310e-01 5.373536500000000160e-01 5.957098299999999957e-01 5.559397499999999548e-01 4.030998700000000268e-01 3.984690200000000071e-01 5.014797300000000124e-01 3.612347699999999828e-01 4.141063600000000067e-01 3.792246599999999912e-01 5.566983399999999582e-01 5.162093700000000007e-01 4.766534800000000183e-01 6.781337200000000509e-01 8.185067799999999894e-01 1.062157900000000099e+00 1.353207599999999955e+00 1.552167700000000039e+00 1.861727300000000085e+00 2.027077900000000099e+00 1.925932600000000106e+00 1.941201200000000071e+00 1.741191200000000050e+00 1.462562300000000093e+00 1.349683299999999919e+00 1.110802300000000020e+00 6.349040400000000028e-01 1.772694300000000056e-01 -1.120549700000000037e-01 -3.764205299999999754e-01 -4.488324300000000044e-01 -5.388990000000000169e-01 -6.228630800000000134e-01 -4.210773899999999959e-01 -3.031754999999999867e-01 -5.448415300000000183e-01 -3.944333500000000159e-01 -5.157633000000000356e-01 -4.468455100000000013e-01 -5.225998499999999769e-01 -6.343862399999999901e-01 -6.183427099999999621e-01 -5.447665200000000318e-01 -4.400021599999999755e-01 -1.379420200000000020e-02 9.402173000000000336e-01 1.471202300000000074e+00 7.918183199999999644e-01 8.897837800000000241e-01 1.185630600000000090e+00 8.676218799999999565e-01 1.400571700000000086e-01 -4.048329700000000142e-01 -4.077519199999999899e-01 7.794719699999999585e-02 -1.399609099999999939e+00
2.000000000000000000e+00 -2.390781000000000156e-02 -7.997008399999999684e-01 -8.975708900000000101e-01 -1.850147399999999998e+00 -2.001123699999999950e+00 -2.275464500000000001e+00 -2.661172099999999929e+00 -2.572687800000000191e+00 -2.466887900000000133e+00 -2.270371100000000197e+00 -1.838330800000000043e+00 -1.337112800000000101e+00 -8.750588799999999834e-01 -5.334141199999999916e-01 -4.210165299999999999e-01 -3.433231900000000003e-01 -1.329048100000000121e-01 1.492494299999999885e-01 3.248617200000000205e-01 2.912359500000000212e-01 3.083063300000000173e-01 4.056802500000000200e-01 3.860647700000000015e-01 3.498043699999999756e-01 3.648484399999999961e-01 4.051003300000000085e-01 4.412641900000000006e-01 4.298136799999999758e-01 4.070544799999999963e-01 4.104222200000000043e-01 4.267515000000000058e-01 4.556641300000000006e-01 4.685825200000000024e-01 4.468628499999999781e-01 4.448423499999999975e-01 4.390396699999999930e-01 4.085721700000000123e-01 4.101738400000000118e-01 3.894446300000000138e-01 3.459415200000000024e-01 3.763336999999999932e-01 4.079761599999999766e-01 4.020069399999999793e-01 4.058931700000000253e-01 4.033161699999999739e-01 4.037684999999999746e-01 3.996014199999999850e-01 3.449567000000000050e-01 2.906541500000000000e-01 3.178024999999999878e-01 3.483504499999999782e-01 3.079138200000000047e-01 2.715729299999999902e-01 2.586431100000000094e-01 2.469414100000000001e-01 2.750688299999999864e-01 2.362562500000000010e-01 1.796556500000000001e-01 2.416115000000000068e-01 2.515455200000000224e-01 2.461151299999999875e-01 2.725466500000000014e-01 2.254636100000000087e-01 2.520283799999999963e-01 3.109732599999999736e-01 2.651201499999999989e-01 2.984591300000000169e-01 3.911261100000000268e-01 3.387854200000000038e-01 2.998428799999999783e-01 4.020038699999999854e-01 4.624315299999999795e-01 4.521476700000000015e-01 4.782494700000000099e-01 5.402680100000000207e-01 5.865210600000000385e-01 5.945781999999999456e-01 6.401523399999999864e-01 6.880659399999999870e-01 6.976439800000000524e-01 7.225677999999999823e-01 6.890991300000000042e-01 6.346755499999999772e-01 6.439356099999999916e-01 6.496677600000000385e-01 6.271798200000000545e-01 5.959021799999999480e-01 5.904918399999999901e-01 5.925011300000000425e-01 5.657189099999999637e-01 6.018855499999999914e-01 6.204836599999999924e-01 5.526224400000000481e-01 5.338320100000000235e-01 5.255939299999999870e-01 5.240627500000000216e-01 5.937797400000000003e-01 6.311044099999999490e-01 5.927000999999999520e-01 5.635470099999999594e-01 5.751318199999999603e-01 6.039747899999999836e-01 6.237650099999999531e-01 6.334830999999999657e-01 6.535041900000000403e-01 6.797723500000000252e-01 6.628517200000000331e-01 6.104978699999999980e-01 6.208633300000000466e-01 6.223222299999999763e-01 6.031945300000000065e-01 6.389888299999999521e-01 5.780662300000000142e-01 4.879055500000000212e-01 5.117836199999999947e-01 5.165774699999999831e-01 5.475961299999999587e-01 5.960793199999999681e-01 5.089073899999999595e-01 4.167837300000000189e-01 3.861970200000000020e-01 3.099906900000000132e-01 2.312779899999999889e-01 2.506277599999999772e-01 2.340449500000000016e-01 3.146953499999999987e-02 -2.691188500000000206e-01 -6.369503899999999774e-01 -1.142373700000000047e+00 -1.665550800000000109e+00 -2.252748799999999996e+00 -2.861648000000000192e+00 -3.447056599999999804e+00 -3.843119399999999963e+00 -3.402903900000000093e+00 -2.786632500000000068e+00 -1.779818099999999959e+00 -6.868368599999999935e-01 -1.223985600000000007e+00 3.899570199999999875e-01
5.000000000000000000e+00 3.698752100000000098e-01 -1.842447100000000004e+00 -3.458431899999999892e+00 -4.346415300000000315e+00 -4.370114599999999960e+00 -3.362736700000000134e+00 -2.404774900000000049e+00 -1.712536400000000070e+00 -1.637347499999999956e+00 -8.410442099999999588e-01 -3.135509000000000213e-01 -3.753362700000000274e-01 -2.644320000000000004e-01 -3.391535199999999861e-01 -3.222419699999999887e-01 -3.361565300000000089e-01 -3.028416099999999833e-01 -2.543195899999999843e-01 -3.251284199999999736e-01 -2.829057300000000219e-01 -3.930157699999999865e-01 -4.284637600000000268e-01 -4.758540099999999939e-01 -4.216014100000000098e-01 -4.056077900000000236e-01 -5.614259600000000017e-01 -5.811694600000000266e-01 -5.561935500000000365e-01 -5.951954499999999593e-01 -6.335221199999999664e-01 -6.723432499999999479e-01 -6.411496199999999757e-01 -7.286336399999999713e-01 -7.691957200000000272e-01 -6.817516900000000213e-01 -7.664132000000000167e-01 -8.389325399999999489e-01 -8.713314699999999968e-01 -8.766560799999999487e-01 -8.966519600000000256e-01 -8.492152200000000484e-01 -8.668483099999999553e-01 -8.163805600000000329e-01 -7.219465499999999647e-01 -6.609679299999999813e-01 -6.649163000000000157e-01 -6.276189500000000088e-01 -4.408873500000000112e-01 -3.503829500000000263e-01 -2.066387899999999889e-01 -1.789190200000000119e-01 -8.266663500000000220e-02 1.736490400000000045e-02 1.976866299999999969e-03 -3.400331300000000029e-02 -6.334283399999999717e-03 6.801624300000000400e-02 -2.670248200000000134e-03 1.055308199999999974e-01 1.678812100000000029e-01 9.672162600000000499e-02 1.453764300000000009e-01 2.022980900000000137e-01 2.073036699999999954e-01 2.342143999999999893e-01 2.981221399999999799e-01 2.944582900000000114e-01 2.253178700000000034e-01 2.495230900000000029e-01 4.065561400000000103e-01 4.243479800000000135e-01 4.169768899999999889e-01 4.669361399999999995e-01 5.470933700000000233e-01 5.000747899999999913e-01 5.851840200000000269e-01 6.825936200000000120e-01 7.239708200000000149e-01 6.960788300000000373e-01 6.649911600000000256e-01 6.831888299999999692e-01 6.508062900000000095e-01 6.858334000000000374e-01 8.060732499999999634e-01 6.301173500000000205e-01 7.358339999999999881e-01 7.070530600000000110e-01 6.611030900000000043e-01 7.272437099999999877e-01 5.661691500000000099e-01 5.976794800000000407e-01 6.602559700000000253e-01 6.717563399999999518e-01 5.020787399999999678e-01 5.472125500000000198e-01 6.160832400000000320e-01 4.833987399999999934e-01 5.112900700000000409e-01 4.941242100000000081e-01 4.777168999999999999e-01 4.068926299999999774e-01 4.391503299999999776e-01 4.595950799999999892e-01 4.868159899999999762e-01 3.913121299999999803e-01 4.201471600000000195e-01 5.280115699999999856e-01 7.898669499999999566e-01 9.309625099999999653e-01 1.168905899999999942e+00 1.270238999999999896e+00 1.496718800000000016e+00 1.594155999999999906e+00 1.833129000000000008e+00 2.004699599999999915e+00 1.907216699999999987e+00 1.896357000000000070e+00 1.771411999999999987e+00 1.557559700000000102e+00 1.368268100000000098e+00 1.208326299999999964e+00 1.045587400000000056e+00 7.963765800000000006e-01 3.461372600000000022e-01 1.240138600000000035e-02 -8.690734699999999244e-03 -8.343661599999999817e-03 -7.309282599999999963e-02 -1.927417600000000120e-01 -1.425800100000000070e-01 -1.148688399999999998e-01 -6.006120899999999735e-02 -7.511577999999999311e-02 -9.957574700000000611e-02 -1.316303699999999965e-01 -8.647050100000000517e-02 -6.965656500000000362e-02 -5.237254400000000004e-02 6.465956200000000376e-02 1.039129000000000025e-01
1.000000000000000000e+00 -6.845474400000000070e-01 -2.485875300000000010e+00 -3.484140700000000201e+00 -4.112616400000000283e+00 -3.673212700000000108e+00 -3.097595300000000051e+00 -2.102181100000000136e+00 -1.512110300000000018e+00 -1.249673500000000104e+00 -7.002776200000000451e-01 -5.018417499999999754e-01 -4.307245800000000235e-01 -4.487616099999999775e-01 -5.227664100000000147e-01 -4.456675999999999971e-01 -4.003637500000000182e-01 -4.233856699999999917e-01 -4.005621699999999952e-01 -4.074809400000000137e-01 -4.729407099999999864e-01 -5.025598100000000512e-01 -5.232457900000000439e-01 -5.324318200000000001e-01 -5.730493599999999521e-01 -5.692835299999999821e-01 -5.970614899999999725e-01 -7.022013799999999861e-01 -6.821925399999999584e-01 -6.749063100000000093e-01 -6.852573699999999768e-01 -7.551273200000000463e-01 -8.230690400000000295e-01 -8.499948400000000293e-01 -8.065648699999999893e-01 -8.967478500000000130e-01 -9.169313799999999626e-01 -8.429313800000000079e-01 -8.567512900000000542e-01 -7.708140599999999676e-01 -8.295818499999999540e-01 -7.604970899999999867e-01 -7.414282800000000506e-01 -5.876319100000000351e-01 -5.298093400000000175e-01 -5.167471000000000148e-01 -3.819829499999999878e-01 -4.038811400000000273e-01 -3.811984700000000115e-01 -2.992806100000000025e-01 -3.024609699999999957e-01 -2.933215800000000262e-01 -2.468209199999999992e-01 -2.642242300000000044e-01 -2.035405499999999868e-01 -2.399162200000000134e-01 -2.783576999999999857e-01 -1.700784300000000027e-01 -1.779135000000000022e-01 -2.452869000000000022e-01 -2.044991499999999907e-01 -1.742316200000000037e-01 -1.887529500000000027e-01 -1.401953300000000069e-01 -1.898470100000000105e-01 -1.250379399999999863e-01 -6.684276999999999580e-02 -6.479791799999999775e-03 8.211700600000000627e-02 8.014820999999999751e-02 1.066161000000000053e-01 1.529005099999999895e-01 2.409190099999999890e-01 2.519962600000000275e-01 2.815328999999999748e-01 2.722077500000000261e-01 3.752040099999999767e-01 3.450416800000000173e-01 3.655250600000000127e-01 3.584993599999999891e-01 4.360782999999999743e-01 4.106916099999999847e-01 4.460590300000000230e-01 4.341870700000000083e-01 4.543486800000000048e-01 4.113190700000000088e-01 4.063463700000000123e-01 3.226479600000000114e-01 3.836026100000000105e-01 3.829371599999999987e-01 3.125644200000000095e-01 3.705946399999999752e-01 3.308175600000000105e-01 3.584664100000000131e-01 4.288564699999999896e-01 4.361033200000000165e-01 6.139536899999999964e-01 7.629381400000000424e-01 9.458377000000000034e-01 1.018522200000000044e+00 1.129602699999999960e+00 1.325315800000000044e+00 1.618397899999999945e+00 1.775509000000000004e+00 1.776423099999999922e+00 1.774971999999999994e+00 1.677300299999999966e+00 1.538752200000000014e+00 1.394978700000000016e+00 1.185656400000000055e+00 9.520691900000000096e-01 7.275707700000000333e-01 4.331859299999999968e-01 2.696585300000000074e-01 1.710119599999999906e-01 1.762580099999999927e-01 2.077521099999999898e-01 1.691818999999999962e-01 2.123766500000000002e-01 3.062849999999999739e-01 2.738874399999999820e-01 2.947073800000000188e-01 2.537422100000000236e-01 2.880805399999999961e-01 3.192734700000000037e-01 3.173474299999999859e-01 3.228346000000000271e-01 3.477240699999999962e-01 4.234842200000000223e-01 5.270835099999999773e-01 9.207555899999999571e-01 1.353869100000000048e+00 1.390703900000000104e+00 1.532499499999999903e+00 1.636914800000000003e+00 1.626474799999999998e+00 1.354266900000000051e+00 1.227118200000000048e+00 1.581587199999999971e+00 1.897382899999999983e+00 7.761175300000000554e-01
1.000000000000000000e+00 9.583321500000000492e-01 -2.031313800000000142e-02 -1.719209500000000057e+00 -3.075816500000000175e+00 -4.129220600000000019e+00 -4.238698399999999644e+00 -3.081233099999999947e+00 -2.103873300000000057e+00 -1.754631300000000005e+00 -7.143048600000000414e-01 4.639926400000000256e-02 -6.622837299999999316e-02 -1.986923999999999982e-02 -8.239341499999999763e-02 -9.461562199999999645e-02 -1.376275899999999941e-01 -1.463325199999999937e-01 -6.086589500000000319e-02 -1.617361800000000072e-01 -6.884167800000000337e-02 -1.779471300000000089e-01 -2.684338800000000136e-01 -3.213928899999999866e-01 -2.900545900000000010e-01 -4.340545499999999834e-01 -4.867929100000000231e-01 -4.837238799999999950e-01 -6.023882000000000403e-01 -6.574274100000000454e-01 -7.754764800000000236e-01 -8.987392800000000292e-01 -8.757018300000000144e-01 -9.914797199999999533e-01 -1.146261100000000033e+00 -1.101175100000000073e+00 -1.127988299999999944e+00 -1.161945500000000076e+00 -1.140722999999999931e+00 -1.119375900000000090e+00 -1.111646200000000029e+00 -9.839463200000000409e-01 -8.052199100000000387e-01 -7.298622200000000060e-01 -6.328209000000000195e-01 -4.966446500000000208e-01 -2.716662400000000033e-01 -1.954992600000000080e-01 -9.545057599999999531e-02 -1.330347200000000021e-02 6.356204899999999547e-02 1.611630699999999985e-02 1.440544900000000073e-01 4.570969899999999947e-02 1.316443300000000038e-01 8.603563699999999814e-02 2.184608500000000120e-01 2.119514399999999910e-01 1.901801100000000133e-01 1.677239199999999986e-01 1.690885099999999974e-01 2.854132600000000020e-01 3.583284400000000258e-01 1.717342900000000117e-01 3.244277400000000200e-01 4.548688200000000070e-01 3.700349399999999789e-01 5.825867999999999602e-01 5.271021399999999968e-01 5.811231500000000327e-01 6.944752699999999779e-01 6.778777200000000169e-01 7.126218899999999801e-01 7.310869100000000342e-01 6.935741100000000214e-01 6.817544300000000224e-01 6.954743599999999581e-01 7.445199700000000309e-01 7.847903499999999699e-01 6.719651399999999608e-01 7.341216000000000408e-01 6.070508100000000518e-01 6.533461600000000091e-01 5.165173499999999862e-01 5.521138799999999458e-01 4.433073299999999994e-01 4.881867100000000237e-01 2.757550200000000173e-01 4.651956099999999816e-01 2.982696499999999973e-01 1.956608599999999920e-01 2.913354400000000011e-01 2.871290599999999915e-01 1.545125999999999999e-01 1.341647499999999993e-01 3.464205300000000043e-01 2.029347999999999985e-01 1.361844600000000072e-01 1.563572900000000099e-01 1.665399700000000094e-01 2.049594000000000138e-01 1.866789500000000102e-01 3.577113399999999888e-01 7.173119599999999707e-01 1.112059300000000084e+00 1.284452799999999950e+00 1.445833499999999994e+00 1.596236800000000011e+00 2.173596600000000212e+00 2.435111200000000142e+00 2.320363599999999860e+00 2.168477199999999883e+00 1.938795800000000069e+00 1.586764300000000016e+00 1.421040000000000081e+00 1.087498099999999912e+00 2.954313900000000159e-01 -2.819207300000000083e-01 -4.240893900000000105e-01 -4.786655000000000215e-01 -4.512864799999999899e-01 -4.771948200000000195e-01 -4.059317000000000064e-01 -3.332196700000000233e-01 -4.317266799999999738e-01 -4.864496099999999768e-01 -3.841336599999999879e-01 -3.952997100000000263e-01 -4.666049600000000130e-01 -4.808245099999999828e-01 -5.539622899999999683e-01 -3.400365100000000140e-01 -3.984906599999999965e-01 2.267607399999999884e-01 9.697819100000000248e-01 8.309455999999999509e-01 1.005319499999999922e+00 1.054379399999999967e+00 8.715104999999999658e-01 3.050483800000000079e-01 -3.140099899999999888e-02
2.000000000000000000e+00 -1.082566799999999940e+00 -2.037982599999999866e+00 -2.283882499999999816e+00 -2.627103500000000036e+00 -2.544449600000000089e+00 -2.587142699999999795e+00 -2.361911500000000164e+00 -2.157920299999999791e+00 -1.730586500000000028e+00 -1.165780800000000061e+00 -8.134016699999999656e-01 -6.713571499999999581e-01 -6.229658500000000432e-01 -3.841535300000000208e-01 8.452353999999999814e-04 2.554860800000000043e-01 3.037233300000000136e-01 2.985677899999999996e-01 3.429940200000000106e-01 3.501781400000000266e-01 3.604362199999999739e-01 4.095028800000000135e-01 3.025516799999999895e-01 2.332595399999999874e-01 3.452016399999999763e-01 3.676407500000000161e-01 3.654887199999999892e-01 3.997573899999999902e-01 3.517055599999999727e-01 3.810005499999999934e-01 3.645456799999999831e-01 2.653635999999999773e-01 2.727159299999999953e-01 2.561476200000000203e-01 2.818981300000000245e-01 2.752554300000000231e-01 2.254876700000000012e-01 2.642875800000000219e-01 2.520312499999999845e-01 2.164837900000000093e-01 2.187402499999999972e-01 2.063593099999999902e-01 1.804562000000000110e-01 8.711191799999999652e-02 4.473110500000000017e-02 1.154414700000000044e-01 9.355970900000000479e-02 7.613198999999999661e-02 6.086156499999999941e-02 -2.013271900000000031e-02 1.632144799999999882e-02 4.148929800000000084e-02 -3.038953200000000035e-02 -1.052101000000000078e-02 -7.744321200000000259e-03 -3.568929900000000072e-02 4.294659199999999871e-02 3.705082199999999715e-02 -4.132356000000000223e-03 8.166382599999999492e-02 9.976981399999999833e-02 1.236706100000000003e-01 1.587502399999999869e-01 1.384487799999999935e-01 1.743823200000000073e-01 1.874278600000000017e-01 2.585773399999999889e-01 3.042810799999999816e-01 3.048424299999999976e-01 4.106213699999999855e-01 4.277603200000000272e-01 3.989442999999999739e-01 4.879238499999999923e-01 4.788932599999999873e-01 4.188466299999999976e-01 5.199945599999999946e-01 5.608669899999999542e-01 5.065001399999999876e-01 5.480821000000000165e-01 5.653739199999999743e-01 5.398005099999999556e-01 6.165992900000000221e-01 6.575348100000000251e-01 5.864262500000000378e-01 5.585143799999999770e-01 6.069616500000000192e-01 6.865116300000000393e-01 6.862369099999999777e-01 6.341676299999999822e-01 6.213892100000000251e-01 6.344909600000000482e-01 6.599795899999999493e-01 5.883575100000000280e-01 6.285933400000000004e-01 6.977880100000000141e-01 5.944570000000000132e-01 5.956442699999999757e-01 6.527394399999999486e-01 6.684285300000000207e-01 6.535223700000000191e-01 7.119963999999999738e-01 7.526148000000000282e-01 6.808352500000000029e-01 6.963507199999999786e-01 6.734364699999999537e-01 6.900634199999999829e-01 7.974052299999999649e-01 8.110611500000000085e-01 7.752276900000000248e-01 7.562056600000000017e-01 7.749165999999999555e-01 7.744145599999999741e-01 7.857596900000000106e-01 7.654321200000000491e-01 7.625853500000000507e-01 8.167084799999999589e-01 7.193220200000000064e-01 6.168026300000000184e-01 5.896690100000000490e-01 5.582910500000000109e-01 5.926511500000000154e-01 6.030024999999999968e-01 5.132447399999999771e-01 3.774025799999999875e-01 2.209011600000000131e-01 1.414122999999999908e-01 1.762815500000000091e-01 3.201695399999999747e-01 3.435003799999999941e-01 -5.571865200000000046e-02 -4.938602799999999848e-01 -9.744771300000000247e-01 -1.539366500000000082e+00 -2.150494600000000034e+00 -2.770620599999999989e+00 -3.403633600000000037e+00 -4.003381599999999985e+00 -3.362323200000000067e+00 -3.097360600000000019e+00 -1.454136199999999990e+00
1.000000000000000000e+00 -1.441184299999999974e+00 -2.523552099999999854e+00 -3.124016500000000196e+00 -3.668726599999999838e+00 -3.728183000000000025e+00 -3.334454700000000216e+00 -3.030125599999999864e+00 -1.585409499999999916e+00 -8.180262400000000156e-01 -5.108428400000000202e-01 2.197351600000000127e-01 5.315729000000000148e-01 1.918280599999999947e-01 1.910800599999999960e-01 2.969364400000000168e-02 5.227903700000000042e-02 1.777103999999999837e-02 1.830496400000000135e-01 1.053499999999999992e-01 2.114917400000000114e-01 6.281260199999999516e-02 -2.082310699999999903e-01 -3.176693500000000309e-02 -3.404739600000000060e-02 -1.204759700000000017e-01 -1.120433299999999965e-01 -3.593819100000000266e-01 -3.827846899999999830e-01 -5.498307300000000453e-01 -5.145193799999999706e-01 -3.207272800000000035e-01 -4.145125299999999902e-01 -4.375072300000000247e-01 -4.334727600000000125e-01 -9.232337999999999933e-01 -1.060747399999999896e+00 -8.183862600000000320e-01 -7.965791899999999925e-01 -6.376135499999999734e-01 -8.435380199999999995e-01 -6.999131100000000050e-01 -4.843484299999999965e-01 -4.685164299999999837e-01 -5.062136699999999490e-01 -4.033747200000000199e-01 -3.489011799999999774e-01 1.743028199999999972e-01 9.052682600000000468e-02 -1.717308800000000024e-01 1.901474700000000129e-01 7.510740700000000103e-02 -6.821267900000000089e-04 4.333406100000000011e-02 2.276660199999999967e-01 -1.184101500000000057e-01 -1.935543399999999914e-01 -7.507915499999999465e-02 -2.306754299999999869e-01 -6.914786300000000385e-02 8.774171299999999896e-02 1.227105099999999949e-01 8.289833300000000460e-02 -1.777442300000000100e-02 1.334174999999999944e-01 1.176683200000000068e-01 9.046637000000000428e-02 3.054290399999999850e-01 2.973154299999999917e-01 2.592730599999999996e-01 4.355764999999999776e-01 2.671162899999999785e-01 2.710679599999999967e-01 5.218146200000000068e-01 4.202176400000000034e-01 4.458821700000000221e-01 5.746950400000000458e-01 5.384459499999999510e-01 4.329250399999999832e-01 6.125976800000000333e-01 6.945449099999999598e-01 9.069951299999999828e-01 6.851590100000000128e-01 4.549403599999999881e-01 4.858039699999999739e-01 5.224105500000000291e-01 4.933554600000000234e-01 6.460679400000000072e-01 3.791173199999999799e-01 2.842664599999999986e-01 2.654113799999999745e-01 1.544278500000000054e-01 3.049369100000000055e-01 5.594905900000000099e-01 4.007394400000000023e-01 4.514461399999999958e-01 5.370355500000000282e-01 1.056723999999999997e+00 9.401969799999999600e-01 9.948125599999999569e-01 1.577760599999999958e+00 1.672290199999999949e+00 1.889613500000000057e+00 2.431628100000000181e+00 2.359750000000000014e+00 1.892469399999999968e+00 1.776521400000000028e+00 1.824813000000000018e+00 1.620216600000000007e+00 1.313081799999999966e+00 9.538852500000000179e-01 6.472326299999999755e-01 2.693050200000000061e-01 -7.974248200000000342e-02 -4.370817399999999964e-01 -5.730193399999999881e-01 -4.435050500000000118e-01 -7.209226800000000379e-01 -4.629712799999999850e-01 -4.266419499999999920e-01 -3.716948999999999947e-01 -4.800267599999999968e-01 -5.344998699999999880e-01 -3.580841599999999847e-01 -5.284270699999999987e-01 -5.155747099999999916e-01 -6.461445399999999895e-01 -3.637624700000000044e-01 -2.414949799999999980e-01 -5.064239999999999714e-02 5.147692600000000063e-01 1.390626499999999988e+00 1.826070400000000093e+00 1.240537400000000012e+00 9.116230699999999798e-01 6.316323099999999746e-01 4.229654199999999808e-01 -1.319873000000000018e-01 -8.959097700000000497e-01 -1.222666999999999948e+00 -9.626388900000000248e-01
1.000000000000000000e+00 -3.255984399999999890e-01 -2.484569899999999887e+00 -3.675881899999999813e+00 -4.468259699999999945e+00 -3.783163300000000007e+00 -2.846245500000000206e+00 -1.821324900000000024e+00 -1.378764600000000007e+00 -1.233312799999999987e+00 -4.203043799999999774e-01 -1.024437700000000034e-01 -9.350410600000000350e-02 -7.257601800000000603e-02 -1.716684099999999935e-01 -1.004855100000000001e-01 -1.241398600000000046e-01 -1.482769999999999921e-01 -1.438597299999999912e-01 -2.113288799999999967e-01 -1.805159199999999964e-01 -1.946524400000000099e-01 -1.210595899999999947e-01 -2.054233199999999926e-01 -3.488327399999999745e-01 -3.134240300000000201e-01 -1.915171999999999985e-01 -3.352459300000000253e-01 -5.817348599999999648e-01 -5.726748099999999786e-01 -5.055040499999999826e-01 -5.870853499999999503e-01 -6.620458599999999860e-01 -7.308337900000000387e-01 -6.028944999999999999e-01 -5.639406500000000433e-01 -7.551961299999999655e-01 -8.556080000000000352e-01 -7.423226299999999833e-01 -5.847220300000000037e-01 -7.518747500000000361e-01 -7.784477199999999542e-01 -5.758131899999999748e-01 -5.967398499999999606e-01 -4.896847200000000178e-01 -2.004681199999999996e-01 -3.716036499999999989e-03 -2.656622799999999729e-01 -3.855222899999999897e-01 -3.717382399999999976e-01 -1.264714799999999972e-01 -3.607942900000000314e-02 -3.890522600000000109e-02 -1.663398300000000149e-02 4.475720899999999919e-02 -2.701240099999999839e-02 -1.382540499999999895e-01 -1.426913999999999960e-01 -1.146381200000000031e-02 -7.691928700000000285e-02 -2.141915899999999873e-01 -1.891066899999999940e-01 -7.240131099999999598e-02 -2.899495900000000070e-02 1.004547799999999935e-01 7.240085100000000218e-02 5.970882200000000167e-02 5.977362399999999742e-02 7.008610299999999682e-02 2.539153399999999894e-01 3.594821400000000056e-01 3.748689800000000183e-01 3.071706399999999948e-01 5.603882399999999819e-01 6.783474200000000343e-01 3.334222000000000019e-01 1.243916099999999997e-01 4.458044400000000240e-01 5.565793399999999780e-01 6.397377300000000044e-01 4.772024100000000213e-01 3.779975099999999810e-01 4.240285799999999883e-01 3.686477599999999910e-01 3.672345200000000087e-01 3.284433199999999831e-01 2.794381899999999752e-01 4.219681299999999968e-01 4.449125500000000177e-01 3.549544900000000114e-01 4.282165299999999841e-01 2.553027600000000175e-01 2.476825800000000133e-01 2.854540400000000200e-01 5.032688499999999898e-01 7.276217200000000274e-01 6.332862700000000400e-01 6.791890900000000508e-01 1.176184899999999978e+00 1.180902399999999908e+00 1.321920299999999937e+00 1.653682899999999956e+00 2.065694800000000164e+00 2.167594400000000032e+00 1.970124399999999998e+00 1.913676399999999944e+00 1.751153200000000076e+00 1.488466499999999915e+00 1.137168900000000038e+00 9.657551699999999961e-01 7.393092900000000078e-01 1.416654499999999983e-01 -7.345304399999999512e-02 1.238818599999999964e-01 -2.610283999999999938e-01 -4.093830199999999864e-01 -3.525806100000000165e-01 -2.669296199999999786e-01 -1.570252900000000118e-01 -1.679918900000000048e-01 -2.847684799999999905e-01 -1.476716200000000034e-01 -1.405117300000000014e-02 -6.190077199999999974e-02 -1.670523299999999989e-01 -1.793140799999999868e-01 -5.551857000000000320e-03 1.564786999999999983e-01 4.588069599999999859e-01 9.856336199999999881e-01 1.429535699999999965e+00 1.485939700000000085e+00 1.925442199999999993e+00 1.929056600000000010e+00 1.404062499999999991e+00 8.771693499999999588e-01 5.030368600000000301e-01 6.787101800000000518e-01 2.160911299999999924e-01 -6.465035099999999479e-01 -2.518342000000000080e+00
1.000000000000000000e+00 1.396149599999999991e+00 1.318763799999999931e+00 -7.442484499999999503e-01 -2.267078699999999891e+00 -3.128758499999999998e+00 -3.768102100000000121e+00 -3.415206700000000151e+00 -2.330104599999999859e+00 -1.759198999999999957e+00 -1.766801599999999972e+00 -8.585585399999999812e-01 -4.817251599999999856e-01 -4.563186699999999818e-01 -4.517940699999999921e-01 -4.760557200000000155e-01 -5.410891500000000187e-01 -4.695080699999999996e-01 -4.639088699999999732e-01 -4.669573200000000091e-01 -4.584927300000000150e-01 -5.613048800000000060e-01 -5.169110300000000491e-01 -6.001636799999999772e-01 -6.843083199999999700e-01 -6.825312599999999730e-01 -7.118812300000000315e-01 -8.093328699999999820e-01 -6.749939900000000437e-01 -7.787679899999999655e-01 -8.710354900000000233e-01 -8.925225900000000046e-01 -8.858457899999999663e-01 -9.444833299999999543e-01 -1.039009800000000094e+00 -1.054014000000000006e+00 -1.095631800000000045e+00 -1.083230200000000032e+00 -1.053315599999999908e+00 -1.188209899999999930e+00 -1.095601899999999906e+00 -1.042780199999999935e+00 -9.604471300000000378e-01 -8.269882800000000200e-01 -8.619795500000000388e-01 -7.167512299999999614e-01 -6.311352999999999547e-01 -5.499743999999999744e-01 -5.598772499999999930e-01 -3.844693499999999875e-01 -3.886260999999999743e-01 -2.338004300000000035e-01 -2.312666999999999917e-01 -7.472411900000000551e-02 -7.589120400000000377e-02 -1.212314300000000011e-01 -2.118551100000000131e-01 -1.166723100000000013e-01 -9.076485099999999362e-02 -6.919070800000000354e-02 4.848823800000000295e-02 2.279337999999999850e-02 3.757999900000000282e-02 4.383984300000000334e-02 -1.608695699999999895e-02 1.050192800000000065e-01 9.035592000000000623e-02 1.692542200000000108e-01 1.450975800000000038e-01 2.911872899999999875e-01 3.011857099999999954e-01 2.823709300000000200e-01 3.027441300000000002e-01 4.108448299999999942e-01 3.497821600000000086e-01 4.433961599999999836e-01 4.598090799999999811e-01 5.070647000000000348e-01 5.740212300000000489e-01 4.671766299999999816e-01 5.339347199999999738e-01 5.593712100000000076e-01 4.615553199999999912e-01 4.592927900000000063e-01 4.359574500000000241e-01 4.555932400000000104e-01 4.054001300000000252e-01 4.411040500000000253e-01 3.880567899999999848e-01 3.382117499999999777e-01 3.079434500000000074e-01 3.702976700000000232e-01 3.813904499999999920e-01 2.551069899999999779e-01 3.952161399999999936e-01 3.242728400000000066e-01 3.589098900000000092e-01 3.010860599999999887e-01 3.453919500000000031e-01 3.804688800000000093e-01 4.752588999999999841e-01 7.093941099999999667e-01 1.037001899999999921e+00 1.300926400000000038e+00 1.251454800000000089e+00 1.445136699999999941e+00 1.688787700000000003e+00 2.087365899999999996e+00 2.052967399999999998e+00 2.005227099999999929e+00 1.839711899999999956e+00 1.709189300000000022e+00 1.642448700000000095e+00 1.200558599999999920e+00 9.550259199999999726e-01 4.867350699999999919e-01 8.524175999999999975e-02 5.956814199999999754e-02 -3.196863300000000324e-02 -1.110352099999999953e-01 -4.823346900000000104e-02 -6.402581400000000034e-02 -5.645428899999999778e-02 -6.440898200000000351e-02 -3.443355499999999764e-02 -3.752524000000000137e-02 -9.530974999999999864e-02 1.892932500000000032e-02 2.693956899999999828e-03 1.173714500000000022e-01 7.365441200000000244e-02 1.137747900000000006e-01 3.357980400000000198e-01 7.987897200000000364e-01 9.289293499999999870e-01 1.441267400000000087e+00 1.721875100000000103e+00 1.762799299999999958e+00 1.895954799999999940e+00 1.387699699999999980e+00 1.937887200000000032e+00
1.000000000000000000e+00 5.933817500000000411e-01 -1.159164099999999920e+00 -3.046142800000000150e+00 -4.510818099999999831e+00 -4.552292399999999795e+00 -3.607222600000000057e+00 -2.412109899999999918e+00 -1.759774600000000078e+00 -1.520472299999999999e+00 -6.796099399999999680e-01 -3.531059799999999860e-01 -3.217658199999999802e-01 -4.138680000000000136e-01 -4.155252300000000232e-01 -3.848312099999999791e-01 -3.529968199999999889e-01 -3.902161000000000102e-01 -3.681446800000000019e-01 -3.911461800000000100e-01 -4.821674400000000027e-01 -4.471041499999999780e-01 -5.454179999999999584e-01 -5.246625700000000503e-01 -5.223613299999999571e-01 -5.513222899999999926e-01 -6.431365199999999893e-01 -6.484322000000000141e-01 -6.553193099999999882e-01 -7.006735499999999783e-01 -7.985521500000000161e-01 -8.487923699999999627e-01 -8.625706600000000446e-01 -8.946544600000000402e-01 -9.706057300000000554e-01 -9.973667299999999791e-01 -9.346520400000000173e-01 -1.053244099999999905e+00 -8.484129700000000440e-01 -7.150888199999999584e-01 -7.350459700000000485e-01 -6.047875999999999808e-01 -5.380262799999999679e-01 -4.029924400000000073e-01 -3.486211200000000066e-01 -3.516520799999999780e-01 -2.864954699999999743e-01 -2.403450400000000098e-01 -1.556962899999999872e-01 -4.681499199999999972e-02 -3.624022400000000144e-02 1.409524399999999983e-02 -1.553368299999999952e-02 9.596310499999999993e-03 1.299086700000000039e-01 1.383275699999999934e-02 4.107401699999999739e-02 3.436690700000000209e-02 6.309218199999999666e-02 1.154350400000000026e-01 7.549467199999999878e-02 1.461273200000000050e-01 1.434973499999999957e-01 1.421013499999999874e-01 2.768676400000000259e-01 2.240272199999999991e-01 3.330198799999999903e-01 4.107953999999999772e-01 3.664773700000000245e-01 4.715989999999999904e-01 4.436500800000000022e-01 5.065222700000000522e-01 5.983638900000000094e-01 6.596053899999999581e-01 6.239014499999999686e-01 5.246775099999999581e-01 5.563734900000000261e-01 6.515604400000000185e-01 6.203641100000000241e-01 4.945665000000000200e-01 5.074155000000000193e-01 5.502279100000000422e-01 5.716290800000000116e-01 4.724015799999999876e-01 5.144794099999999704e-01 5.462961200000000517e-01 4.109929700000000130e-01 3.344872600000000085e-01 3.848770799999999825e-01 4.427165200000000023e-01 3.475552199999999980e-01 3.890557000000000043e-01 3.993402200000000235e-01 2.767388299999999912e-01 3.503332299999999955e-01 3.383187300000000119e-01 4.130359800000000248e-01 5.674751500000000393e-01 6.824256499999999948e-01 8.365484800000000387e-01 9.503945000000000309e-01 1.028134899999999963e+00 1.017206499999999902e+00 1.183368100000000034e+00 1.411473299999999931e+00 1.422074400000000072e+00 1.339394200000000090e+00 1.166686200000000007e+00 8.847830500000000153e-01 7.850491600000000236e-01 7.311149599999999804e-01 7.220010599999999723e-01 4.613813600000000181e-01 2.172227499999999922e-01 -4.756189200000000145e-02 -6.236682400000000126e-02 -6.951829800000000614e-02 -8.044385900000000644e-02 -1.114248800000000031e-03 -5.360931199999999924e-02 -5.919012800000000157e-02 -7.407195900000000666e-02 -5.715014799999999816e-05 -1.818956899999999918e-02 1.189321999999999949e-02 1.695475000000000107e-02 -3.644678400000000290e-02 4.986638399999999971e-02 1.416256200000000076e-01 3.315740400000000143e-01 9.205208599999999963e-01 1.595627300000000082e+00 1.702873499999999929e+00 2.024241299999999910e+00 2.343818600000000085e+00 2.026626400000000050e+00 1.343598800000000093e+00 7.132874399999999948e-01 7.744782799999999634e-01 6.819483899999999599e-01 -1.071379999999999999e+00
1.000000000000000000e+00 -1.297481899999999966e+00 -2.716717099999999885e+00 -3.372678500000000135e+00 -4.188830499999999901e+00 -4.046357900000000285e+00 -3.185263200000000072e+00 -1.967591700000000055e+00 -1.358857800000000005e+00 -1.047685200000000094e+00 -7.133773100000000422e-01 -4.558262499999999884e-01 -4.372720800000000074e-01 -2.505656700000000181e-01 -2.372308300000000036e-01 -4.277104500000000198e-01 -4.498690799999999768e-01 -3.854464100000000171e-01 -2.022737599999999969e-01 -1.437784300000000126e-01 -3.079121400000000008e-01 -3.144275599999999948e-01 -3.069843400000000222e-01 -3.699020399999999875e-01 -2.872592400000000268e-01 -4.071320999999999968e-01 -3.751955499999999888e-01 -3.416806399999999799e-01 -4.105659600000000076e-01 -3.810325999999999991e-01 -3.825360600000000111e-01 -4.640981100000000081e-01 -4.494545500000000082e-01 -2.146517599999999970e-01 -2.896328100000000183e-01 -3.452724500000000085e-01 -5.077604000000000006e-01 -6.149730900000000000e-01 -5.122886800000000518e-01 -3.407992899999999770e-01 -2.502501599999999993e-01 -3.181045800000000257e-01 -4.425335899999999767e-01 -1.969477799999999890e-01 -1.470201899999999950e-01 -4.060176599999999747e-02 -3.250414399999999870e-02 -4.980103999999999781e-02 2.126734899999999928e-01 1.380150900000000069e-01 6.498633299999999335e-02 8.339286899999999447e-03 -2.215288099999999927e-01 -1.243987000000000044e-02 -2.441654799999999972e-02 6.397166499999999700e-02 7.465135100000000468e-02 1.141151499999999985e-01 3.446428800000000264e-02 5.902439799999999875e-02 2.223385500000000028e-02 -2.899813899999999917e-02 -8.913341900000000279e-04 -5.151325999999999822e-02 7.128974399999999864e-03 1.530185900000000099e-01 1.879827099999999973e-01 1.662616299999999936e-01 3.088896500000000156e-01 4.228462900000000135e-01 4.700213200000000202e-01 5.914863500000000496e-01 6.209207199999999816e-01 5.734433899999999973e-01 3.343036300000000183e-01 3.321319099999999747e-01 5.377633800000000130e-01 6.629691899999999860e-01 6.084151399999999654e-01 4.326247500000000024e-01 6.010487300000000310e-01 6.159832400000000430e-01 6.319818200000000274e-01 6.342875700000000228e-01 4.776898900000000059e-01 5.434443899999999994e-01 8.539975699999999836e-01 4.432952900000000085e-01 1.437016200000000021e-01 2.992516599999999749e-01 4.839662800000000265e-01 5.101950800000000230e-01 3.750694700000000159e-01 4.419594800000000157e-01 4.308076100000000075e-01 3.911717599999999795e-01 5.115539199999999953e-01 6.640084200000000436e-01 7.665210000000000079e-01 1.126997699999999991e+00 1.157558199999999982e+00 1.252454200000000073e+00 1.531675700000000084e+00 1.974156999999999940e+00 2.080407199999999790e+00 1.974181299999999917e+00 1.827732399999999924e+00 1.715833699999999906e+00 1.719767999999999963e+00 1.598243199999999975e+00 1.146981999999999946e+00 8.515455600000000347e-01 6.685642899999999500e-01 3.993474599999999874e-01 1.115021199999999962e-01 -1.351727000000000067e-01 -2.317172799999999977e-01 -3.008652199999999888e-01 -4.224974699999999861e-01 -3.090918300000000118e-01 -2.843524900000000133e-01 -2.519793300000000014e-01 -1.925739800000000057e-01 -1.357278100000000043e-01 -1.728753899999999899e-01 -3.427999400000000252e-01 -2.077973800000000038e-01 -2.633292500000000147e-01 -2.465055999999999914e-01 -8.644111200000000050e-02 2.946102500000000179e-01 1.309919599999999962e+00 2.030742099999999883e+00 1.729691799999999891e+00 1.364302200000000020e+00 8.308137799999999462e-01 -2.774671899999999747e-01 -1.349091800000000063e+00 -1.883082200000000039e+00 -1.335516499999999995e+00 -9.648380399999999524e-01
1.000000000000000000e+00 4.889542399999999844e-01 -5.822552100000000230e-01 -2.370209399999999800e+00 -3.395527899999999821e+00 -3.539500299999999822e+00 -2.762257099999999799e+00 -2.048771299999999851e+00 -1.573995000000000033e+00 -1.333354499999999998e+00 -7.355536499999999478e-01 -4.861649000000000109e-01 -5.071956199999999582e-01 -5.581197799999999543e-01 -4.904903600000000141e-01 -3.810373699999999864e-01 -4.505324099999999943e-01 -3.905060100000000145e-01 -3.899464300000000105e-01 -3.826368900000000073e-01 -4.002198699999999776e-01 -4.437490399999999835e-01 -3.831731600000000126e-01 -4.263416199999999767e-01 -4.517969900000000094e-01 -4.654304599999999903e-01 -5.981793499999999986e-01 -6.574430300000000393e-01 -6.394317400000000262e-01 -7.220388100000000309e-01 -8.231267300000000287e-01 -8.019789899999999472e-01 -8.922765999999999753e-01 -9.552969700000000230e-01 -1.024408800000000008e+00 -1.094032899999999975e+00 -1.096226399999999934e+00 -1.149311100000000030e+00 -1.152243799999999929e+00 -1.108244100000000065e+00 -1.024180300000000043e+00 -8.987373899999999693e-01 -8.386845899999999521e-01 -7.596242300000000114e-01 -6.773971199999999637e-01 -5.556991900000000095e-01 -4.978258099999999797e-01 -4.358979000000000048e-01 -4.004608800000000191e-01 -3.761313700000000204e-01 -2.967906499999999892e-01 -1.865213400000000077e-01 -1.341936699999999871e-01 -2.042497100000000010e-01 -1.428916199999999970e-01 -1.667304000000000008e-01 -1.373328699999999958e-01 -1.220889899999999945e-01 -1.336562000000000028e-01 -1.032022799999999935e-01 -9.267641100000000021e-02 -9.043972699999999754e-02 -1.008364800000000061e-01 -1.206311600000000012e-01 -6.684705999999999981e-02 -7.971481900000000620e-02 4.729188499999999878e-02 2.057366000000000143e-03 1.333799400000000059e-02 5.062203900000000062e-02 4.365335599999999906e-03 8.831397300000000394e-02 1.306229700000000049e-02 5.317421099999999727e-03 3.817822900000000103e-02 -1.205479899999999972e-02 -4.111324100000000176e-02 -1.275892700000000046e-01 -7.760243299999999844e-02 -1.025998999999999939e-01 -5.312752400000000236e-02 -3.919798800000000305e-02 -1.359653999999999863e-01 -1.470895399999999908e-01 -1.439405500000000004e-01 -1.604711199999999949e-01 -1.716853600000000091e-01 -1.556690000000000018e-01 -1.243907600000000030e-01 -5.940791699999999759e-02 -1.754567200000000105e-01 -1.680262899999999948e-01 -1.498608100000000110e-01 -1.288636300000000068e-01 -7.434893900000000277e-02 -3.187111000000000111e-02 -5.159183400000000308e-02 8.183271699999999926e-02 1.027555099999999944e-01 3.407080900000000190e-01 4.922557000000000182e-01 6.164822899999999883e-01 7.148290999999999951e-01 9.260808799999999952e-01 1.091692600000000013e+00 1.212679400000000074e+00 1.228773200000000010e+00 1.190298599999999984e+00 1.225295999999999941e+00 1.108603100000000063e+00 9.851024299999999734e-01 9.338400700000000221e-01 7.433324599999999727e-01 5.864886999999999739e-01 3.306145699999999965e-01 3.117732200000000176e-01 3.883703199999999911e-01 4.839690700000000012e-01 6.050501000000000351e-01 6.809223599999999488e-01 7.842381800000000069e-01 7.935907500000000114e-01 8.139763800000000549e-01 8.692053699999999772e-01 9.015692899999999677e-01 9.257437400000000371e-01 9.120276499999999675e-01 8.863182299999999847e-01 8.854519499999999876e-01 1.022860099999999939e+00 1.146637399999999918e+00 1.520619399999999954e+00 1.808670599999999906e+00 1.669056600000000001e+00 1.966619399999999906e+00 2.341758200000000123e+00 2.323429500000000036e+00 2.167485999999999802e+00 2.261763100000000026e+00 2.812973700000000132e+00 2.691124299999999803e+00
2.000000000000000000e+00 -7.711139500000000480e-01 -1.713497700000000012e+00 -2.188749699999999798e+00 -2.531403899999999929e+00 -2.490005399999999813e+00 -2.318743800000000022e+00 -2.239087300000000003e+00 -2.047472099999999795e+00 -1.730495200000000011e+00 -1.261613499999999943e+00 -6.046544000000000363e-01 -1.849954099999999990e-01 -1.515135300000000074e-01 -9.924335400000000584e-02 6.814537699999999310e-02 3.334844399999999931e-01 6.479708699999999766e-01 7.094250100000000225e-01 5.894869000000000359e-01 6.190593899999999872e-01 6.879450900000000368e-01 6.535109900000000138e-01 6.764318599999999959e-01 7.082804400000000111e-01 6.479708699999999766e-01 6.241577799999999954e-01 6.374559199999999537e-01 6.589418299999999507e-01 6.879450900000000368e-01 6.505089800000000144e-01 5.969918600000000408e-01 5.844060300000000208e-01 5.480353199999999925e-01 5.589104999999999768e-01 6.436463999999999519e-01 5.927585499999999952e-01 5.280482100000000178e-01 6.279437100000000438e-01 6.174103699999999861e-01 5.305199200000000337e-01 5.480353199999999925e-01 5.246646700000000552e-01 4.937830000000000275e-01 4.759528699999999724e-01 4.081255500000000036e-01 4.094710599999999978e-01 4.637063299999999999e-01 4.554904100000000122e-01 3.681513299999999989e-01 3.036616999999999789e-01 3.455918299999999888e-01 3.619008100000000172e-01 3.081900000000000195e-01 3.164058499999999885e-01 3.290349599999999874e-01 2.665746399999999738e-01 2.682157800000000147e-01 2.902290599999999832e-01 2.092794299999999885e-01 2.397384399999999971e-01 3.081900000000000195e-01 1.970218499999999984e-01 1.914640900000000034e-01 2.926497299999999968e-01 2.682157800000000147e-01 2.340654299999999910e-01 2.134198099999999876e-01 2.169626699999999964e-01 2.482286700000000124e-01 2.420538200000000029e-01 2.839299599999999812e-01 3.054261899999999863e-01 2.882028899999999894e-01 3.491656699999999836e-01 3.809310699999999827e-01 4.044614200000000159e-01 4.680868799999999830e-01 4.445776599999999856e-01 4.313680899999999818e-01 5.241266799999999559e-01 5.880095400000000527e-01 5.898268800000000534e-01 5.842838299999999485e-01 5.556524600000000147e-01 5.280482100000000178e-01 5.550101800000000196e-01 5.810849500000000445e-01 5.561495400000000533e-01 5.280482100000000178e-01 5.505145000000000177e-01 6.023560399999999815e-01 5.957852000000000148e-01 5.280482100000000178e-01 5.157315599999999778e-01 5.473033699999999557e-01 5.081269400000000269e-01 4.880739900000000131e-01 5.555065799999999721e-01 5.566500599999999466e-01 5.240496300000000440e-01 5.480353199999999925e-01 5.415259599999999729e-01 4.986766400000000043e-01 4.560778500000000069e-01 4.680868799999999830e-01 5.410625599999999702e-01 5.130604899999999802e-01 4.281048100000000023e-01 4.480997700000000084e-01 4.793901199999999752e-01 4.209372499999999850e-01 3.533669600000000077e-01 3.681513299999999989e-01 3.503764699999999954e-01 2.039505400000000135e-01 1.545929699999999962e-01 2.082544500000000076e-01 1.816360499999999933e-01 1.655062900000000004e-01 1.235779800000000039e-01 8.383346200000000789e-03 -4.982306000000000235e-02 -1.282098499999999863e-01 -1.557374199999999875e-01 4.835756599999999766e-02 1.731079500000000104e-01 -5.569181100000000079e-02 -3.739363299999999835e-01 -7.511268399999999623e-01 -1.283073200000000025e+00 -1.732500399999999940e+00 -2.180768800000000063e+00 -2.829786299999999866e+00 -3.422268799999999889e+00 -3.791999899999999979e+00 -3.802382399999999940e+00 -3.049644499999999869e+00 -2.052510600000000185e+00 -1.452079799999999921e+00 -3.845932200000000134e-01
2.000000000000000000e+00 -9.676600899999999728e-01 -1.309170799999999968e+00 -1.507325699999999991e+00 -1.786694500000000074e+00 -2.074142800000000175e+00 -2.135359300000000182e+00 -1.913074100000000000e+00 -1.542213800000000079e+00 -1.177352500000000024e+00 -9.430929500000000409e-01 -8.028880099999999853e-01 -6.147946100000000191e-01 -3.735847099999999865e-01 -2.756015299999999835e-01 -2.752841999999999789e-01 -2.630366299999999935e-01 -2.249160900000000129e-01 -2.584849599999999858e-01 -2.552280699999999736e-01 -2.531405600000000145e-01 -2.596802899999999803e-01 -2.667595500000000119e-01 -2.855253799999999953e-01 -2.828826099999999788e-01 -2.805935399999999746e-01 -2.657667300000000066e-01 -2.408987800000000068e-01 -2.723108599999999879e-01 -3.033695599999999826e-01 -2.588631399999999916e-01 -3.168800199999999845e-01 -3.297246500000000080e-01 -3.228818099999999913e-01 -3.447070799999999990e-01 -3.655376599999999865e-01 -3.851805500000000104e-01 -3.579380600000000023e-01 -3.532745899999999994e-01 -4.007882999999999862e-01 -3.837310500000000180e-01 -4.002274100000000057e-01 -4.728045699999999796e-01 -4.626067799999999952e-01 -4.736552099999999932e-01 -4.961342999999999726e-01 -4.863915799999999900e-01 -4.915437500000000015e-01 -4.969834300000000038e-01 -4.842340099999999925e-01 -4.618939100000000186e-01 -5.153980000000000228e-01 -4.834912100000000046e-01 -4.768979099999999804e-01 -4.211897199999999897e-01 -4.189507499999999829e-01 -4.048589599999999900e-01 -3.217722800000000216e-01 -3.399022099999999824e-01 -3.704235599999999851e-01 -2.833194600000000229e-01 -2.615790000000000060e-01 -2.325016099999999974e-01 -2.093637700000000046e-01 -1.527761699999999889e-01 -1.790251800000000060e-01 -1.554627600000000054e-01 -1.241662899999999986e-01 -1.823896399999999918e-01 -1.508859100000000120e-01 -1.594904900000000125e-01 -1.068268299999999976e-01 -1.471193199999999979e-01 -7.225859299999999596e-02 -1.285748700000000078e-01 -1.507061399999999884e-01 -1.349883299999999897e-01 -1.315193900000000138e-01 -1.573803400000000074e-01 -1.162569900000000045e-01 -1.508260100000000103e-01 -1.110025199999999934e-01 -1.488245900000000066e-01 -1.521712100000000012e-01 -1.170002299999999967e-01 -1.544893099999999908e-01 -1.302242200000000016e-01 -1.313403300000000051e-01 -1.203762200000000060e-01 -1.388574900000000001e-01 -1.144604000000000038e-01 -4.577122200000000030e-02 -8.851939200000000230e-02 -2.134956600000000038e-02 5.053213099999999576e-03 6.104612800000000419e-04 4.880832300000000068e-02 5.709820100000000120e-02 3.944482900000000070e-02 6.307384900000000127e-02 7.918737900000000218e-02 9.255499799999999944e-02 1.255377699999999930e-01 1.748202000000000089e-01 2.117402499999999910e-01 2.166773999999999922e-01 2.117123499999999936e-01 2.949806400000000162e-01 3.712624600000000163e-01 4.261333900000000008e-01 5.725586499999999468e-01 6.621274700000000513e-01 7.822884700000000135e-01 9.062211000000000016e-01 9.380630899999999883e-01 1.039264900000000047e+00 1.291523100000000035e+00 1.431739099999999931e+00 1.596254300000000015e+00 1.770785999999999971e+00 1.956867200000000029e+00 2.150160300000000024e+00 2.339282600000000212e+00 2.510711899999999996e+00 2.741273899999999930e+00 2.940516399999999919e+00 2.981470400000000076e+00 2.810938699999999901e+00 2.396106200000000186e+00 2.186269699999999983e+00 1.936924799999999891e+00 1.446685699999999963e+00 1.185029300000000063e+00 9.729946000000000428e-01 9.788846199999999831e-01 1.007107699999999939e+00 4.601226299999999769e-01 -8.868268099999999654e-01 -1.905666300000000035e+00 -2.404584700000000019e+00 -2.642287300000000005e+00
2.000000000000000000e+00 6.343380100000000077e-01 3.390338299999999805e-01 -2.960788799999999887e-01 -9.436724399999999457e-01 -1.149052799999999985e+00 -1.540044799999999992e+00 -1.842526300000000061e+00 -1.919443100000000069e+00 -1.825375699999999934e+00 -1.443486499999999895e+00 -9.543584099999999903e-01 -6.673068300000000175e-01 -5.618556799999999685e-01 -4.749145900000000253e-01 -1.843829800000000019e-01 1.740927200000000064e-01 3.811798599999999815e-01 3.190427599999999808e-01 2.628293700000000066e-01 2.687717800000000157e-01 3.109246500000000246e-01 3.578645899999999824e-01 3.026382699999999870e-01 3.721073400000000087e-01 3.376672399999999796e-01 4.320186699999999935e-01 3.647955099999999895e-01 3.712552700000000261e-01 3.510824200000000062e-01 3.151587800000000272e-01 2.753736900000000043e-01 3.274674100000000143e-01 3.204847599999999797e-01 3.086886400000000141e-01 3.333670000000000244e-01 3.104281400000000191e-01 2.500711299999999748e-01 2.366809199999999891e-01 2.308763299999999907e-01 2.115011499999999989e-01 2.522937000000000096e-01 2.839555200000000168e-01 2.130858900000000000e-01 1.881354799999999938e-01 2.331071999999999866e-01 1.684519800000000012e-01 1.868677900000000058e-01 1.839245200000000080e-01 1.762995099999999926e-01 1.571911199999999897e-01 9.534088500000000022e-02 1.603663899999999976e-01 3.364666100000000132e-02 5.663553600000000021e-02 2.277713099999999907e-02 -4.561444500000000346e-02 -2.659170199999999831e-02 -2.604147399999999848e-02 -2.670919299999999913e-02 -2.457400100000000157e-02 -5.631647000000000042e-02 -8.561149199999999737e-02 -5.115751799999999905e-02 -2.116280699999999876e-02 4.159738699999999956e-02 4.684947899999999943e-02 7.268322800000000250e-02 1.257528899999999991e-02 -4.691718000000000104e-03 1.537792099999999995e-01 1.354931500000000066e-01 2.075149599999999983e-01 2.893526900000000235e-01 2.845734699999999950e-01 3.238826799999999784e-01 3.473565599999999809e-01 3.667925499999999950e-01 3.613762200000000258e-01 4.136264900000000133e-01 4.148361300000000251e-01 4.924832100000000046e-01 4.567465800000000131e-01 4.505091199999999851e-01 5.226732600000000284e-01 5.021520699999999504e-01 4.646301999999999932e-01 4.814096400000000275e-01 5.323503299999999827e-01 5.658418699999999690e-01 5.191656199999999943e-01 5.599522900000000192e-01 5.120429600000000470e-01 5.476942700000000386e-01 6.240647599999999962e-01 6.641507399999999617e-01 6.409023900000000440e-01 5.627438999999999636e-01 6.149121699999999802e-01 5.855991400000000180e-01 5.585988200000000514e-01 5.514454300000000142e-01 5.981842299999999835e-01 6.921773100000000456e-01 6.645448400000000255e-01 7.078841599999999845e-01 6.693033600000000138e-01 6.454692300000000049e-01 7.180079400000000112e-01 7.099869800000000453e-01 7.536606099999999531e-01 7.446153199999999694e-01 7.505886899999999473e-01 8.420587800000000067e-01 8.254891899999999838e-01 8.023751799999999657e-01 8.415250499999999967e-01 7.984305900000000511e-01 7.709917299999999862e-01 8.728611899999999535e-01 8.352190099999999839e-01 6.977168299999999546e-01 4.762723700000000004e-01 4.247086999999999946e-01 4.739351299999999823e-01 5.053421799999999742e-01 3.692795099999999775e-01 3.452064299999999669e-02 -1.694058300000000072e-01 -4.946808300000000158e-01 -7.881595599999999813e-01 -8.685945299999999758e-01 -1.044644799999999929e+00 -1.424906699999999971e+00 -1.791691300000000098e+00 -2.438263899999999929e+00 -2.864277099999999798e+00 -3.594523600000000041e+00 -4.226817999999999742e+00 -4.992996599999999674e+00 -4.349393899999999924e+00
1.000000000000000000e+00 -1.721707899999999958e+00 -3.339955199999999902e+00 -4.174951700000000265e+00 -4.529427599999999998e+00 -3.932272999999999907e+00 -2.875293099999999935e+00 -1.742195099999999996e+00 -1.431503100000000028e+00 -1.095609599999999961e+00 -4.991902699999999915e-01 -3.129743400000000175e-01 -2.626354799999999767e-01 -3.766350500000000268e-01 -3.772878900000000146e-01 -3.195246500000000212e-01 -3.773941299999999943e-01 -3.200803300000000240e-01 -3.031782299999999930e-01 -3.750621199999999988e-01 -3.963084499999999788e-01 -3.894203600000000209e-01 -4.645131000000000121e-01 -3.621464500000000086e-01 -3.561259999999999981e-01 -5.023415900000000045e-01 -4.282348899999999792e-01 -4.207364900000000185e-01 -5.047263899999999692e-01 -4.027485000000000093e-01 -4.737198400000000031e-01 -5.837197699999999712e-01 -4.779349199999999853e-01 -4.818584899999999727e-01 -5.256821900000000491e-01 -4.536069699999999982e-01 -5.362766300000000319e-01 -4.475394400000000106e-01 -3.976057299999999906e-01 -4.307711599999999863e-01 -3.501387799999999828e-01 -2.836940399999999807e-01 -2.812927599999999750e-01 -1.342646600000000079e-01 -5.055417799999999823e-02 -3.478400999999999715e-02 6.958405300000000682e-02 1.329011999999999971e-01 2.042846000000000106e-01 1.840464599999999951e-01 2.932672900000000138e-01 1.384756099999999990e-01 5.768058300000000055e-02 1.956072799999999945e-01 1.323459700000000072e-01 1.198152400000000034e-01 9.611810199999999693e-02 1.119388899999999992e-01 1.119671700000000047e-01 7.905304200000000392e-02 1.875978699999999999e-01 1.585039799999999888e-01 6.657573899999999489e-02 8.519032199999999888e-02 1.255011600000000005e-01 1.506104299999999896e-01 2.184752899999999887e-01 2.321871299999999916e-01 2.451044300000000120e-01 3.388769899999999891e-01 3.839093499999999826e-01 4.196193799999999863e-01 5.016077799999999476e-01 4.236069700000000271e-01 5.194854100000000363e-01 5.736069799999999885e-01 5.136748300000000267e-01 6.242788799999999805e-01 5.614562300000000006e-01 6.590734400000000104e-01 5.610849799999999554e-01 5.476711600000000457e-01 5.446312500000000112e-01 5.478568999999999800e-01 4.449775300000000100e-01 5.366426800000000386e-01 4.740423899999999802e-01 4.663019400000000259e-01 4.676175499999999929e-01 4.514406499999999989e-01 4.951141299999999856e-01 4.373043500000000083e-01 5.020052999999999876e-01 5.763876700000000186e-01 7.161077200000000031e-01 7.991186700000000309e-01 8.359284399999999948e-01 1.061698999999999948e+00 1.274692299999999889e+00 1.477035000000000098e+00 1.758534400000000053e+00 2.061995099999999859e+00 2.103409099999999921e+00 1.980189699999999942e+00 1.889897799999999961e+00 1.673794000000000004e+00 1.496777400000000036e+00 1.209295500000000079e+00 9.858662999999999732e-01 7.149793300000000240e-01 3.269162099999999849e-01 -5.809569299999999686e-02 -3.094221400000000122e-01 -2.830721400000000276e-01 -2.209480500000000069e-01 -3.520647299999999924e-01 -3.374209899999999762e-01 -2.724587900000000062e-01 -3.990759999999999863e-01 -3.422218100000000152e-01 -3.434503999999999890e-01 -3.492541900000000199e-01 -3.521383299999999994e-01 -2.741089999999999915e-01 -2.462491900000000067e-01 -2.883001000000000036e-01 -2.108142699999999981e-01 -3.931349199999999849e-02 1.594607500000000122e-01 8.471276899999999888e-01 1.182819099999999901e+00 9.651673200000000508e-01 1.032672500000000104e+00 7.792221900000000367e-01 4.806756099999999754e-01 1.545863399999999888e-01 4.845569599999999949e-02 4.380066599999999921e-01 5.601901599999999926e-01 -2.274683499999999997e-02 -1.744945900000000050e+00
2.000000000000000000e+00 -4.460847700000000193e-01 -1.364809900000000020e+00 -1.762322699999999909e+00 -2.301473000000000102e+00 -2.451903199999999838e+00 -2.417963299999999816e+00 -2.462045300000000214e+00 -2.342963000000000129e+00 -2.108831900000000203e+00 -1.819042499999999896e+00 -1.399848500000000051e+00 -9.669985399999999620e-01 -6.717523699999999875e-01 -4.843519800000000153e-01 -3.907648000000000232e-01 -3.108250399999999969e-01 -6.067926299999999717e-02 2.181703700000000024e-01 3.392830099999999960e-01 3.785429799999999734e-01 4.099281900000000256e-01 4.278398999999999952e-01 3.811266999999999849e-01 3.001378900000000183e-01 3.212971000000000021e-01 4.064659500000000203e-01 4.064956699999999756e-01 3.773520100000000155e-01 4.084698800000000074e-01 4.195194400000000212e-01 3.872557500000000097e-01 4.023327600000000115e-01 4.288989200000000168e-01 4.009673100000000212e-01 3.927718499999999779e-01 4.391707599999999934e-01 4.603893900000000095e-01 4.248765299999999745e-01 3.796762300000000034e-01 3.598095800000000177e-01 3.671411900000000061e-01 3.392598000000000003e-01 2.845490399999999753e-01 3.196060800000000146e-01 3.652795999999999821e-01 3.205986699999999745e-01 3.187376199999999993e-01 3.529310099999999895e-01 3.112756400000000201e-01 2.604650399999999810e-01 2.586605200000000049e-01 3.021100800000000031e-01 3.309940699999999736e-01 2.830375900000000056e-01 2.430803500000000006e-01 2.529783299999999735e-01 2.281455099999999958e-01 1.984045999999999865e-01 2.292330200000000096e-01 2.155709799999999954e-01 1.466008599999999995e-01 1.623814600000000052e-01 1.991656199999999877e-01 1.939108499999999957e-01 2.266002799999999873e-01 2.225041700000000011e-01 1.960168100000000135e-01 2.167805299999999991e-01 1.813678200000000129e-01 1.665900700000000068e-01 2.330957700000000077e-01 2.631140699999999777e-01 3.072814500000000115e-01 3.824766499999999736e-01 4.187076000000000131e-01 4.517216000000000009e-01 4.570352100000000251e-01 4.411841100000000182e-01 4.700462499999999988e-01 4.957732300000000092e-01 5.036942399999999598e-01 5.356314199999999692e-01 5.330530799999999569e-01 4.974937700000000018e-01 5.693081700000000023e-01 6.973669900000000199e-01 7.182402500000000245e-01 7.034537899999999677e-01 7.272496099999999908e-01 7.134837699999999616e-01 6.853844599999999732e-01 6.916161899999999640e-01 6.852286400000000555e-01 6.674277100000000074e-01 6.828486000000000278e-01 7.122278699999999851e-01 7.069371599999999534e-01 6.781758100000000455e-01 6.626787400000000439e-01 6.706378100000000009e-01 6.989593499999999793e-01 7.241405400000000547e-01 7.211243600000000198e-01 7.248587100000000172e-01 7.435170599999999519e-01 7.329253500000000310e-01 7.248548400000000003e-01 7.244617700000000049e-01 7.168458300000000172e-01 7.442273400000000150e-01 7.330552999999999653e-01 6.577432800000000412e-01 6.441350200000000026e-01 6.360428299999999480e-01 5.462734399999999990e-01 4.834178000000000086e-01 4.867241199999999823e-01 5.068496500000000404e-01 5.345538699999999865e-01 5.179051700000000258e-01 4.085681400000000241e-01 2.879714999999999914e-01 2.088110999999999995e-01 1.437923700000000027e-01 1.784089500000000106e-01 3.437352100000000132e-01 3.762988199999999783e-01 1.018078800000000034e-01 -2.742700399999999927e-01 -6.819350100000000081e-01 -1.224034199999999961e+00 -1.777593999999999896e+00 -2.365331299999999803e+00 -2.973551000000000055e+00 -3.506075500000000122e+00 -3.861952500000000121e+00 -3.379181899999999850e+00 -2.509677500000000006e+00 -1.955916100000000046e+00 -3.071597999999999828e-01
2.000000000000000000e+00 1.126100599999999979e-01 -7.361162100000000486e-01 -1.469478400000000073e+00 -2.167030099999999848e+00 -2.755300899999999942e+00 -2.955331699999999895e+00 -2.887369099999999911e+00 -2.725356000000000112e+00 -2.463176600000000160e+00 -2.127839999999999954e+00 -1.606554800000000061e+00 -9.348223399999999739e-01 -4.686953500000000106e-01 -3.337576300000000273e-01 -2.819085199999999958e-01 -4.629404499999999895e-02 2.770797999999999872e-01 4.350780000000000203e-01 5.104396100000000436e-01 5.602903399999999978e-01 5.158885899999999802e-01 5.197737799999999631e-01 5.668841399999999808e-01 5.271716899999999706e-01 5.074750199999999989e-01 5.427064099999999724e-01 5.624962199999999912e-01 5.631886200000000287e-01 5.368882499999999558e-01 5.192056400000000238e-01 5.438445899999999611e-01 5.611253600000000175e-01 5.565945700000000107e-01 5.651057099999999833e-01 5.595635500000000206e-01 5.162351099999999970e-01 4.868307499999999788e-01 4.803345900000000057e-01 4.638541099999999862e-01 4.590325499999999836e-01 4.678202399999999983e-01 4.604267000000000221e-01 4.608555100000000238e-01 4.738045300000000015e-01 4.335451399999999955e-01 3.567622999999999767e-01 3.537538000000000071e-01 4.212878400000000245e-01 4.406328199999999806e-01 3.794553800000000088e-01 2.920048700000000275e-01 2.304403999999999897e-01 2.406843700000000086e-01 2.682055899999999937e-01 2.651671500000000181e-01 2.833076299999999770e-01 2.829152699999999965e-01 2.674555299999999969e-01 2.830365300000000084e-01 2.206128099999999925e-01 1.469027199999999866e-01 1.978231500000000032e-01 2.385689599999999966e-01 2.213266899999999926e-01 2.317689800000000133e-01 2.341612100000000085e-01 2.187224299999999955e-01 2.473224699999999887e-01 2.885289500000000062e-01 2.786227199999999904e-01 2.506431100000000023e-01 2.584737599999999969e-01 3.416667899999999980e-01 4.343423000000000145e-01 4.400535199999999758e-01 4.800215199999999793e-01 5.080012600000000100e-01 4.425620100000000057e-01 5.478660100000000144e-01 6.834929800000000277e-01 6.120258699999999719e-01 6.249049500000000146e-01 6.935368299999999930e-01 6.313252000000000308e-01 6.097371799999999897e-01 6.388552800000000254e-01 6.352317400000000447e-01 6.380168099999999898e-01 6.504810300000000156e-01 6.770092300000000174e-01 6.992215899999999484e-01 6.791080400000000239e-01 6.568567600000000395e-01 6.621367700000000411e-01 6.538631299999999591e-01 6.528204899999999755e-01 7.007337300000000546e-01 7.055441099999999466e-01 6.267377600000000326e-01 5.934995899999999658e-01 6.291237600000000318e-01 6.378700699999999557e-01 6.600709200000000054e-01 6.888166999999999485e-01 6.141357899999999592e-01 5.535188399999999564e-01 5.979948899999999457e-01 6.219402499999999723e-01 6.145450700000000266e-01 5.833739999999999482e-01 4.584196799999999961e-01 3.394144299999999892e-01 3.477671500000000249e-01 4.158813000000000093e-01 4.308080599999999927e-01 3.736551900000000259e-01 2.861873999999999807e-01 2.032440100000000027e-01 1.751471300000000120e-01 1.374528000000000139e-01 -3.976364500000000197e-03 -4.080031199999999830e-02 5.837810200000000116e-02 -5.237818400000000124e-02 -3.196295200000000003e-01 -6.083614899999999492e-01 -1.103541099999999942e+00 -1.665129899999999941e+00 -2.047461999999999893e+00 -2.450517599999999963e+00 -2.969758000000000120e+00 -3.320556600000000191e+00 -3.373301699999999848e+00 -2.933467799999999848e+00 -1.995100000000000096e+00 -1.135673799999999956e+00 -3.518492799999999865e-01 1.130494400000000010e-01 -2.216597800000000007e-01 -5.298883199999999960e-02
2.000000000000000000e+00 -2.673460999999999754e-01 -7.556672199999999728e-01 -1.056111400000000033e+00 -1.683923199999999953e+00 -1.863012600000000019e+00 -2.094522399999999784e+00 -2.340336000000000194e+00 -2.161715599999999959e+00 -1.984644700000000039e+00 -1.861954200000000004e+00 -1.430104599999999948e+00 -9.178190000000000515e-01 -5.849083200000000371e-01 -3.415459299999999976e-01 -2.745819400000000243e-01 -2.711384499999999753e-01 -5.932360700000000042e-02 2.336630299999999938e-01 3.605321499999999957e-01 3.233725199999999966e-01 2.983500599999999725e-01 3.175136900000000151e-01 2.910885400000000067e-01 2.476662799999999887e-01 2.886357700000000137e-01 3.642559599999999898e-01 3.481041200000000169e-01 2.947588999999999904e-01 3.196257000000000126e-01 3.326681200000000116e-01 2.804129399999999994e-01 2.693012000000000183e-01 2.882102599999999959e-01 3.003490300000000168e-01 2.965794700000000117e-01 2.893869000000000025e-01 3.151042600000000249e-01 2.704940000000000122e-01 2.382803500000000019e-01 3.234829499999999913e-01 3.252579500000000179e-01 2.898836699999999822e-01 2.957888000000000184e-01 2.760161400000000209e-01 3.073618300000000025e-01 2.965088699999999799e-01 2.310975000000000112e-01 3.206684499999999938e-01 4.308736799999999811e-01 3.525860000000000105e-01 2.658584700000000134e-01 2.948871000000000131e-01 3.324391199999999769e-01 3.328610699999999811e-01 2.670739400000000097e-01 2.161919200000000096e-01 2.667668599999999945e-01 2.643954800000000160e-01 2.347399500000000028e-01 3.073114800000000257e-01 3.287411599999999767e-01 2.523577699999999813e-01 2.487713699999999917e-01 2.780297299999999749e-01 2.581206099999999726e-01 2.574595900000000159e-01 2.458387800000000067e-01 2.428064100000000003e-01 2.947581300000000071e-01 2.922158899999999782e-01 2.649698699999999962e-01 3.276483700000000221e-01 3.981660799999999778e-01 3.869218099999999771e-01 3.724439600000000183e-01 4.220976000000000172e-01 4.353659300000000121e-01 4.288311699999999838e-01 5.030863800000000552e-01 5.536978500000000469e-01 5.614409200000000100e-01 5.790897600000000089e-01 5.498525300000000060e-01 5.472960399999999836e-01 5.856372800000000378e-01 5.785029699999999497e-01 6.010204000000000102e-01 6.332540500000000128e-01 5.688365199999999566e-01 5.180828600000000339e-01 5.931617399999999929e-01 6.450039600000000428e-01 5.952019899999999586e-01 6.048989000000000171e-01 6.750424099999999816e-01 6.418286199999999608e-01 5.790189300000000427e-01 6.342763999999999625e-01 6.810636500000000204e-01 6.531839600000000079e-01 6.882993899999999554e-01 6.853324899999999609e-01 6.006607099999999866e-01 6.293629099999999976e-01 6.950981899999999492e-01 6.937602999999999964e-01 6.577457500000000179e-01 6.456797499999999967e-01 7.017661400000000382e-01 6.728792200000000001e-01 6.432043299999999908e-01 7.471192199999999728e-01 7.149425400000000153e-01 5.925542999999999783e-01 6.043587799999999843e-01 5.566041499999999642e-01 4.552834700000000234e-01 5.712038400000000182e-01 7.201215100000000202e-01 7.028576500000000005e-01 6.416690099999999841e-01 4.989796200000000126e-01 3.351503499999999858e-01 2.143489399999999878e-01 3.867151399999999711e-02 -1.612020299999999962e-02 1.104098000000000024e-01 1.275183500000000025e-01 -5.461342699999999911e-02 -3.049200100000000191e-01 -6.943473100000000509e-01 -1.251599300000000081e+00 -2.010561299999999996e+00 -2.772114699999999932e+00 -3.203945599999999949e+00 -3.923018100000000175e+00 -4.223066400000000442e+00 -3.589328399999999863e+00 -3.238254500000000036e+00 -1.333464600000000111e+00
1.000000000000000000e+00 -1.272045099999999929e+00 -2.645109099999999991e+00 -3.280718499999999871e+00 -4.186055399999999871e+00 -3.827164699999999975e+00 -3.134634800000000165e+00 -2.383175899999999903e+00 -1.667483100000000107e+00 -1.336981999999999893e+00 -7.792780599999999946e-01 -5.777905100000000349e-01 -6.593932599999999811e-01 -1.188497500000000040e-01 -1.453262200000000059e-01 -5.754122799999999982e-01 -5.422187699999999611e-01 -3.079027699999999923e-01 -2.926303800000000233e-01 -3.230047300000000177e-01 -1.420935500000000129e-01 -2.218805000000000083e-01 -4.995530300000000090e-01 -4.733858899999999759e-01 -2.431064599999999964e-01 -3.597439800000000187e-01 -6.827192800000000394e-01 -6.460274799999999873e-01 -3.729086099999999737e-01 -1.911162200000000033e-01 -3.034343199999999796e-01 -1.905363800000000052e-01 -5.946542500000000231e-02 -3.397688700000000006e-01 -4.551663200000000131e-01 -2.281371100000000041e-01 -1.575335499999999944e-01 -2.467033899999999946e-01 -3.161377200000000109e-01 -2.586760599999999855e-01 -3.775638299999999892e-01 -4.030056000000000194e-01 -7.917597899999999356e-02 -7.480503400000000636e-02 -1.053497199999999939e-01 -1.618722999999999967e-01 -1.611698699999999929e-01 -6.026483900000000060e-02 -1.747483699999999862e-01 -2.712103900000000234e-01 3.094215300000000089e-03 1.690395700000000001e-01 1.125110899999999942e-01 1.018929900000000027e-01 8.129454099999999794e-02 5.221226600000000023e-02 4.607015600000000100e-02 2.268834600000000090e-01 4.352471399999999768e-01 3.511697500000000027e-01 -8.830967600000000362e-02 -2.742521499999999723e-01 5.020893600000000262e-02 2.138549200000000039e-01 2.364518800000000032e-01 1.419188799999999973e-01 2.258171999999999957e-01 4.085496100000000075e-01 1.341510300000000044e-01 -1.627827199999999919e-01 2.423523300000000047e-01 6.318516600000000372e-01 4.261834500000000192e-01 5.028334500000000151e-01 4.215676600000000107e-01 2.585246199999999828e-01 6.398789099999999674e-01 8.428839900000000274e-01 6.795767700000000522e-01 6.146135799999999927e-01 6.055592300000000039e-01 6.799194299999999913e-01 6.421150599999999598e-01 5.057924200000000203e-01 4.364093299999999842e-01 5.461498799999999765e-01 4.761109700000000222e-01 4.230989299999999842e-01 6.046344000000000163e-01 6.792291999999999774e-01 4.232874099999999751e-01 3.221726899999999838e-01 4.374058699999999744e-01 5.482902600000000293e-01 4.897963699999999809e-01 4.634184499999999818e-01 6.362185299999999488e-01 6.984964200000000067e-01 9.462884599999999979e-01 1.231136599999999914e+00 1.110657500000000075e+00 1.335155499999999940e+00 1.760299000000000058e+00 1.922707100000000002e+00 2.036845899999999876e+00 2.088157100000000099e+00 2.099910899999999803e+00 1.704817100000000085e+00 1.521756000000000109e+00 1.728132699999999966e+00 1.230461400000000038e+00 9.356671399999999528e-01 7.933655299999999855e-01 4.033640299999999845e-01 -1.346868400000000021e-01 -2.463302400000000059e-01 -3.714453500000000075e-01 -3.567697499999999966e-01 -4.801728499999999983e-02 -1.376125599999999949e-01 -4.257611099999999982e-01 -3.126771899999999937e-01 -3.732842399999999894e-01 -3.632473600000000191e-01 -2.658263100000000101e-01 -3.338551799999999736e-01 -3.196972699999999779e-01 -2.546449599999999966e-02 9.984943200000000185e-02 -9.152865099999999213e-03 3.859364499999999865e-01 1.243558900000000023e+00 1.687316299999999991e+00 1.415268200000000087e+00 8.193343600000000393e-01 -2.097951799999999978e-01 -1.164938900000000110e+00 -1.700713700000000106e+00 -1.660873000000000044e+00 -7.602044500000000316e-01 -3.105912599999999801e-01
1.000000000000000000e+00 -7.440133700000000072e-01 -3.896820599999999857e+00 -4.538892299999999658e+00 -4.577700000000000102e+00 -3.793466299999999958e+00 -2.425605500000000081e+00 -1.760755700000000035e+00 -1.409638900000000028e+00 -5.059543899999999761e-01 -2.470421800000000001e-01 -3.240183999999999842e-01 -2.863037700000000130e-01 -2.983732399999999840e-01 -2.293233100000000024e-01 -2.052703999999999918e-01 -2.820788699999999816e-01 -2.636096299999999837e-01 -2.372305200000000003e-01 -2.823328399999999738e-01 -3.141264899999999805e-01 -3.188763299999999856e-01 -3.591721800000000075e-01 -3.641442300000000132e-01 -4.140698400000000223e-01 -4.656797500000000034e-01 -5.524622300000000541e-01 -4.952394199999999858e-01 -6.228376300000000310e-01 -6.536003599999999913e-01 -6.445858599999999550e-01 -7.190977899999999590e-01 -7.447477399999999914e-01 -7.965455500000000466e-01 -8.137350700000000048e-01 -8.035028199999999510e-01 -7.478071099999999971e-01 -7.072914599999999830e-01 -6.977940099999999646e-01 -7.290758099999999908e-01 -6.259355800000000469e-01 -6.299890900000000293e-01 -4.269769999999999954e-01 -3.801333700000000260e-01 -3.466937999999999964e-01 -1.997187300000000110e-01 -1.402595299999999934e-01 -5.849387200000000231e-02 -1.052372399999999958e-01 -4.981762599999999680e-02 -4.357493600000000161e-02 -5.285340000000000177e-02 1.098748899999999959e-02 5.520996100000000184e-02 5.454857899999999982e-02 9.853658899999999388e-02 1.133047499999999957e-01 6.181434300000000076e-02 1.391783799999999904e-01 1.732245400000000102e-01 2.767986599999999742e-01 2.557345500000000049e-01 1.863795699999999944e-01 2.663857399999999820e-01 3.586109299999999944e-01 3.802816399999999764e-01 4.081842099999999918e-01 4.632677299999999887e-01 4.880847099999999772e-01 6.310468900000000270e-01 7.137210499999999680e-01 7.440348399999999751e-01 6.319257400000000136e-01 6.860215899999999589e-01 7.318140499999999937e-01 6.621096499999999940e-01 6.637963099999999450e-01 6.250530600000000492e-01 6.163191900000000167e-01 5.860050599999999665e-01 6.548624899999999638e-01 6.480884000000000089e-01 5.182413999999999632e-01 5.349072700000000458e-01 4.986754899999999990e-01 5.419678100000000498e-01 5.739855600000000058e-01 4.310182699999999811e-01 4.822568999999999884e-01 3.993339100000000141e-01 3.960347100000000120e-01 3.425919800000000182e-01 4.224225999999999814e-01 3.884394999999999931e-01 2.891628500000000268e-01 4.316688499999999928e-01 2.858047899999999752e-01 3.249499100000000085e-01 3.359974399999999806e-01 4.193434699999999959e-01 4.396181299999999958e-01 6.988193400000000111e-01 1.091650900000000091e+00 1.255097300000000082e+00 1.438676800000000089e+00 1.595037500000000108e+00 1.812394199999999955e+00 1.837039199999999983e+00 1.803161500000000084e+00 1.726904400000000006e+00 1.449731199999999998e+00 1.312385799999999936e+00 9.878630600000000150e-01 6.609765800000000358e-01 2.758464299999999758e-01 -1.575493099999999980e-01 -3.028522599999999843e-01 -1.968562199999999984e-01 -2.723254700000000139e-01 -2.013825399999999988e-01 -2.043802700000000028e-01 -2.646075800000000089e-01 -2.330339600000000122e-01 -2.366145900000000135e-01 -2.114959399999999934e-01 -2.302655399999999908e-01 -2.678365999999999802e-01 -2.496373600000000026e-01 -9.712548699999999646e-02 -1.419710000000000139e-01 -1.158451500000000009e-02 3.910443000000000113e-01 1.156354499999999952e+00 1.328613100000000102e+00 1.292350000000000110e+00 1.103027600000000108e+00 5.355216000000000420e-01 3.390285399999999894e-01 2.508858500000000213e-01 1.009737000000000107e+00 -1.181873600000000080e+00
2.000000000000000000e+00 8.228592000000000128e-01 -2.119067000000000034e-01 -1.416692800000000085e+00 -2.164391699999999918e+00 -2.709703999999999890e+00 -3.028606599999999816e+00 -2.937477100000000174e+00 -2.575177800000000072e+00 -1.993726000000000109e+00 -1.240097999999999923e+00 -6.116877299999999851e-01 -3.589733299999999794e-01 -2.341159600000000118e-01 1.545389299999999910e-01 5.670092599999999594e-01 6.816023199999999838e-01 6.813243500000000230e-01 6.212282300000000479e-01 6.665108600000000383e-01 6.955300700000000003e-01 6.283158199999999693e-01 6.200240500000000488e-01 6.164935799999999855e-01 6.137431500000000151e-01 5.410414900000000138e-01 6.133839599999999503e-01 6.284820899999999932e-01 4.958741099999999791e-01 5.231947599999999809e-01 5.176978399999999647e-01 5.597858999999999474e-01 5.572254399999999608e-01 5.772100700000000195e-01 5.610935000000000228e-01 5.153427800000000003e-01 4.329681200000000119e-01 4.589929999999999843e-01 3.367392200000000058e-01 3.571458200000000027e-01 3.160442299999999816e-01 2.537245599999999879e-01 2.473673899999999926e-01 2.352353600000000045e-01 3.051974599999999760e-01 2.018138399999999943e-01 2.279476300000000122e-01 1.025010600000000049e-01 1.063368700000000000e-01 1.117175700000000022e-01 8.893832200000000021e-02 5.899409500000000334e-02 2.593215800000000029e-02 2.711661799999999858e-02 5.593272700000000153e-02 1.788643699999999948e-01 1.491662400000000055e-01 1.242884199999999967e-01 2.083973299999999917e-01 1.443069299999999999e-01 1.395980500000000013e-01 1.963355999999999990e-01 2.341927099999999984e-01 2.717035400000000211e-01 3.464407600000000143e-01 4.206431600000000159e-01 3.212228200000000200e-01 3.670653400000000177e-01 4.396763699999999830e-01 5.018343699999999741e-01 5.054684900000000480e-01 5.056737700000000224e-01 4.558265300000000075e-01 4.281086399999999847e-01 4.796372099999999805e-01 4.578669100000000158e-01 4.978743999999999947e-01 4.230365400000000164e-01 3.732954800000000128e-01 4.328304099999999988e-01 5.349544200000000416e-01 5.018428799999999912e-01 4.980933799999999745e-01 4.524333300000000224e-01 4.381471900000000197e-01 4.690444500000000017e-01 4.285003099999999954e-01 4.178828900000000068e-01 4.460325099999999932e-01 4.168258799999999820e-01 3.979266799999999771e-01 4.118040800000000168e-01 3.678095800000000248e-01 3.755169999999999897e-01 3.513924600000000176e-01 3.107232300000000169e-01 4.020915700000000093e-01 4.440041200000000021e-01 3.925607999999999875e-01 4.475489000000000273e-01 5.030280499999999488e-01 4.854863300000000215e-01 5.237633900000000509e-01 5.341774299999999531e-01 5.541536099999999632e-01 5.769144400000000283e-01 5.526886199999999638e-01 5.340070099999999487e-01 5.939958699999999814e-01 6.562865199999999843e-01 5.575257099999999522e-01 5.962739599999999918e-01 5.478091600000000172e-01 5.319927899999999932e-01 5.256272499999999903e-01 5.362517399999999768e-01 5.511893799999999510e-01 4.078690300000000213e-01 3.761002199999999851e-01 2.917703899999999906e-01 1.576947800000000066e-01 1.502381000000000133e-01 1.519070799999999999e-01 1.102204999999999990e-01 -4.869278199999999696e-02 -1.401251900000000106e-01 -2.556012799999999863e-01 -2.857469300000000101e-01 -1.646785699999999963e-01 -6.914059000000000177e-02 -3.267917799999999762e-01 -7.780681099999999795e-01 -1.285228700000000002e+00 -1.882079800000000080e+00 -2.240986799999999945e+00 -2.976741800000000104e+00 -3.623948099999999783e+00 -4.015205700000000100e+00 -3.591756000000000171e+00 -2.773245300000000135e+00 -1.585024299999999942e+00
2.000000000000000000e+00 2.251424899999999951e+00 2.031582900000000080e+00 2.660597000000000101e+00 1.899798199999999992e+00 2.147014800000000001e+00 1.614374799999999999e+00 1.868728299999999898e+00 1.804251000000000049e+00 1.658109300000000008e+00 1.850843599999999922e+00 1.693907100000000110e+00 1.574102099999999949e+00 1.582250799999999957e+00 1.550896400000000064e+00 1.632425999999999933e+00 1.478738799999999909e+00 1.417308800000000035e+00 1.310053300000000087e+00 1.184072100000000072e+00 1.071547500000000097e+00 6.840512800000000393e-01 6.913027200000000372e-01 8.827529600000000309e-01 9.665596400000000532e-01 8.622613599999999767e-01 8.791980000000000350e-01 7.557592400000000543e-01 2.338975299999999924e-01 2.274998299999999862e-01 2.374026099999999861e-01 1.545780300000000052e-01 8.957541099999999368e-02 -1.403810699999999967e-01 -2.164548199999999922e-01 -1.873892699999999967e-01 -4.213169600000000320e-02 -1.199509299999999964e-03 1.352170400000000106e-01 3.348265699999999900e-01 1.246390599999999960e-01 -2.126683299999999888e-02 1.248315400000000047e-01 1.401653900000000008e-01 2.258906300000000089e-01 4.342455399999999854e-01 5.752420000000000311e-01 6.950748799999999505e-01 6.166078600000000076e-01 5.713913099999999856e-01 8.133817300000000250e-01 9.096854800000000463e-01 8.957015099999999785e-01 9.153361399999999648e-01 7.101136599999999799e-01 5.717950600000000216e-01 5.201040500000000399e-01 2.595014500000000224e-01 2.073118899999999987e-01 3.245748999999999995e-01 2.338952699999999885e-01 1.354705300000000057e-01 1.340742500000000059e-01 1.632614300000000129e-01 6.222961500000000201e-02 -5.927280699999999680e-02 -1.706354599999999888e-01 -3.046045199999999897e-01 -4.377135400000000121e-01 -6.859789200000000475e-01 -6.244106900000000460e-01 -3.454187200000000124e-01 -6.187239500000000225e-01 -8.989026500000000253e-01 -9.283714699999999764e-01 -1.137456699999999987e+00 -1.194112300000000015e+00 -1.391105199999999931e+00 -1.416824800000000106e+00 -1.286937400000000009e+00 -1.298822399999999933e+00 -1.196797000000000111e+00 -1.325987500000000097e+00 -1.296424000000000021e+00 -1.110262000000000082e+00 -9.638868400000000225e-01 -9.929358900000000432e-01 -1.115309700000000070e+00 -1.039797499999999930e+00 -1.075239000000000056e+00 -9.536805200000000315e-01 -8.042295200000000310e-01 -7.066467899999999691e-01 -7.166173099999999518e-01 -1.014029199999999964e+00 -1.083759600000000045e+00 -1.007440099999999950e+00 -9.636486800000000352e-01 -9.241576400000000024e-01 -7.725434799999999491e-01 -7.929375499999999910e-01 -1.000875299999999912e+00 -8.441471200000000286e-01 -6.453669499999999948e-01 -5.208698600000000178e-01 -6.243441899999999656e-01 -1.023242800000000008e+00 -1.101078000000000001e+00 -9.633146500000000501e-01 -9.602947600000000250e-01 -8.446631599999999684e-01 -6.892246100000000153e-01 -8.485618099999999719e-01 -9.543947299999999689e-01 -9.663916299999999460e-01 -1.142052099999999903e+00 -1.068118499999999971e+00 -8.221200100000000122e-01 -7.356759899999999464e-01 -8.557932000000000317e-01 -9.534158000000000355e-01 -8.049536200000000363e-01 -7.134532300000000493e-01 -8.370478999999999559e-01 -1.029740600000000006e+00 -9.375982000000000482e-01 -6.345226800000000056e-01 -4.808756699999999773e-01 -5.576174299999999695e-01 -6.920398800000000517e-01 -5.488169099999999911e-01 -3.428946700000000125e-01 -2.279500899999999941e-01 1.689883799999999936e-01 2.414753600000000000e-01 3.034781500000000021e-01 7.507362100000000149e-01 6.079226800000000486e-01 1.619481500000000018e+00 5.801758099999999585e-01 2.582207499999999989e+00
1.000000000000000000e+00 7.135837699999999506e-01 -7.136397199999999774e-01 -2.177729699999999990e+00 -3.018204799999999910e+00 -3.939621100000000098e+00 -4.053442900000000293e+00 -2.878437900000000216e+00 -1.958224900000000046e+00 -1.786379299999999892e+00 -8.158767000000000102e-01 -1.326506699999999983e-01 -3.757898599999999756e-01 -3.719469499999999984e-01 -2.969104200000000082e-01 -2.888770299999999791e-01 -3.353990099999999974e-01 -2.515406199999999926e-01 -2.989308500000000257e-01 -2.642274399999999801e-01 -3.453455000000000275e-01 -4.242616000000000165e-01 -4.274503900000000134e-01 -5.269703199999999921e-01 -4.929084300000000085e-01 -5.556207300000000071e-01 -6.169974700000000478e-01 -7.117069700000000498e-01 -7.839844799999999836e-01 -8.489189200000000213e-01 -9.391259299999999977e-01 -9.077077999999999536e-01 -9.773133099999999907e-01 -1.144875700000000052e+00 -1.109064999999999968e+00 -1.280441200000000057e+00 -1.248738300000000079e+00 -1.219369200000000042e+00 -1.209809899999999994e+00 -1.096616000000000035e+00 -1.077452700000000041e+00 -9.974586399999999520e-01 -9.636990600000000518e-01 -6.426249800000000123e-01 -4.426971800000000234e-01 -3.633450100000000238e-01 -3.395322399999999852e-01 -1.944082099999999980e-01 -2.335962299999999880e-01 -8.179773299999999747e-02 -3.759151200000000054e-02 5.472738900000000128e-02 4.491700400000000343e-02 5.855773100000000175e-02 -3.041036600000000117e-02 8.801191799999999454e-02 2.077935399999999988e-01 8.593480100000000510e-02 2.109859299999999882e-01 8.297648200000000418e-02 1.538392199999999987e-01 2.632778000000000063e-01 1.740914799999999929e-01 3.132296999999999998e-01 2.363605099999999959e-01 3.793592100000000022e-01 3.745894599999999852e-01 3.013633499999999743e-01 4.375673299999999766e-01 5.570268400000000231e-01 7.128417999999999699e-01 6.732690900000000145e-01 6.422645700000000346e-01 7.738796500000000300e-01 6.756485800000000541e-01 7.267068300000000258e-01 7.419501299999999855e-01 6.438283900000000282e-01 6.138424399999999892e-01 7.439169799999999499e-01 6.967766300000000079e-01 7.632680400000000365e-01 6.492870200000000480e-01 6.614039499999999627e-01 5.580674199999999807e-01 5.234376800000000163e-01 5.024913100000000243e-01 4.694555699999999887e-01 4.866107100000000019e-01 4.381503700000000112e-01 4.317283499999999830e-01 4.147989100000000207e-01 5.205395000000000438e-01 4.601620100000000102e-01 3.860615600000000258e-01 3.879952199999999740e-01 3.105742000000000225e-01 3.120032200000000255e-01 3.185558000000000001e-01 3.932143399999999955e-01 3.811228500000000130e-01 4.338004899999999830e-01 5.541112000000000259e-01 7.583871199999999702e-01 9.190072000000000241e-01 1.320623000000000102e+00 1.483699099999999937e+00 1.679596499999999937e+00 1.956078100000000042e+00 2.350895200000000074e+00 2.363631700000000002e+00 2.154448700000000105e+00 1.978817000000000048e+00 1.621058600000000016e+00 1.292622799999999961e+00 1.064841600000000055e+00 5.379973799999999695e-01 -1.643714099999999956e-01 -2.410984599999999867e-01 -1.897705500000000101e-01 -2.855557599999999918e-01 -1.966661399999999893e-01 -1.686970999999999887e-01 -2.197286800000000095e-01 -2.084008499999999986e-01 -3.150080699999999734e-01 -3.294658500000000045e-01 -1.408002999999999894e-01 -1.022009799999999968e-01 -2.264459699999999964e-01 -2.364317200000000119e-01 -1.619368200000000091e-01 8.150488599999999861e-02 1.024251599999999929e+00 1.380735100000000104e+00 7.455196600000000284e-01 9.367613099999999582e-01 7.680318800000000001e-01 2.900665000000000049e-01 -3.966900099999999818e-01 3.644062200000000029e-01
1.000000000000000000e+00 -9.899463899999999539e-01 -2.212319700000000111e+00 -3.348464599999999791e+00 -4.021377499999999827e+00 -4.006178600000000145e+00 -3.306076000000000015e+00 -2.099513899999999822e+00 -1.576392900000000097e+00 -1.353100600000000098e+00 -8.037876600000000149e-01 -3.101794099999999887e-01 -3.463637800000000100e-01 -2.837569500000000078e-01 -2.583705800000000163e-01 -3.153965899999999767e-01 -3.388198900000000124e-01 -3.253977499999999856e-01 -2.668018699999999965e-01 -3.239256899999999884e-01 -2.613645700000000183e-01 -2.771512500000000156e-01 -3.966210499999999750e-01 -3.924946100000000215e-01 -3.979826499999999934e-01 -4.477396399999999943e-01 -6.086966000000000321e-01 -5.847783399999999521e-01 -4.586744400000000166e-01 -5.690233900000000178e-01 -5.716137199999999918e-01 -7.565128899999999934e-01 -8.353959800000000380e-01 -9.169870399999999755e-01 -8.541810199999999575e-01 -8.638962000000000030e-01 -9.028978800000000415e-01 -9.079349899999999973e-01 -8.990212699999999835e-01 -1.025503300000000007e+00 -1.052180099999999952e+00 -8.599944200000000372e-01 -7.802575099999999875e-01 -7.835220299999999805e-01 -6.334706399999999737e-01 -5.549036600000000208e-01 -4.632335499999999939e-01 -4.235924699999999987e-01 -3.172364999999999768e-01 -2.032226699999999942e-01 -2.106666000000000094e-01 -9.955591900000000660e-02 -6.685437399999999419e-02 -1.363760099999999920e-01 -5.905316800000000310e-02 1.267227400000000073e-02 -3.543232799999999905e-02 4.201193100000000236e-02 9.463449699999999451e-03 4.485515699999999967e-02 9.367819300000000682e-02 7.498243699999999901e-02 1.461730499999999988e-01 1.983959399999999929e-01 2.033358000000000110e-01 3.063616800000000251e-01 2.269868300000000005e-01 1.861520299999999961e-01 2.281769999999999909e-01 2.976723099999999955e-01 3.794692000000000065e-01 2.923271900000000145e-01 3.987815299999999952e-01 4.197307200000000016e-01 4.259783999999999793e-01 5.259190799999999832e-01 5.722286399999999551e-01 5.263522600000000162e-01 6.104101400000000455e-01 6.189962199999999859e-01 5.686834200000000505e-01 6.290367199999999936e-01 6.034899999999999709e-01 6.404050700000000207e-01 5.918349499999999708e-01 5.526934799999999592e-01 5.983200400000000529e-01 5.740586800000000434e-01 5.422399799999999548e-01 5.150401300000000404e-01 4.924985700000000244e-01 6.007174400000000469e-01 5.407924100000000012e-01 5.931327100000000074e-01 8.199457700000000182e-01 9.295065900000000214e-01 1.105392500000000000e+00 1.190864600000000051e+00 1.365793000000000035e+00 1.599337900000000090e+00 1.894487599999999938e+00 1.984898999999999969e+00 2.074469000000000118e+00 2.090811700000000162e+00 1.844201299999999932e+00 1.675086499999999923e+00 1.515506800000000043e+00 1.352318899999999990e+00 1.127871899999999927e+00 6.983535100000000106e-01 3.735866299999999751e-01 1.860487100000000060e-01 7.916370799999999930e-02 -2.309691800000000100e-02 -4.013681599999999877e-02 -4.244716800000000040e-02 -1.408567599999999975e-01 -1.067193000000000030e-01 -8.316301600000000627e-02 -1.585868100000000077e-03 -7.857403100000000251e-02 -1.001213799999999959e-01 -5.395926599999999879e-02 -1.711329099999999923e-02 -7.556470299999999696e-02 -1.370033200000000118e-01 -1.108191699999999946e-01 9.635838500000000473e-02 4.715983799999999837e-01 1.097108100000000031e+00 1.356996599999999997e+00 1.013833100000000043e+00 8.483734400000000342e-01 8.024579699999999649e-01 5.700790100000000526e-01 5.062721199999999921e-01 5.163366600000000028e-01 9.178628199999999682e-01 1.029135499999999981e+00 3.131075300000000228e-01 -1.225866300000000075e+00
1.000000000000000000e+00 -1.151021199999999967e+00 -3.534876399999999919e+00 -4.794092899999999879e+00 -5.056736199999999570e+00 -4.526423000000000307e+00 -3.366393099999999805e+00 -2.270633600000000030e+00 -1.812740999999999936e+00 -9.286532100000000067e-01 -3.629739100000000107e-01 -2.227729300000000079e-01 -3.227846400000000116e-01 -1.426104499999999997e-01 5.645060699999999987e-02 1.318209599999999870e-01 7.639162499999999634e-01 1.175690300000000077e+00 1.122893700000000106e+00 8.565088400000000490e-01 8.614866700000000099e-01 1.095016800000000012e+00 9.986307899999999904e-01 1.014290300000000089e+00 1.148352100000000098e+00 1.105443900000000035e+00 1.304567899999999891e+00 1.178956700000000080e+00 1.109061700000000039e+00 1.180353100000000044e+00 8.850345600000000257e-01 7.599136100000000171e-01 7.133696299999999768e-01 7.055590400000000262e-01 6.450055399999999883e-01 4.818742999999999777e-01 3.605554000000000259e-01 1.213121300000000041e-01 2.851799899999999874e-02 1.062713799999999986e-01 1.005477500000000052e-01 1.267922999999999967e-01 1.667942699999999945e-01 2.801339199999999807e-01 2.956691100000000128e-01 2.221301800000000104e-01 3.426969500000000002e-01 3.736129999999999729e-01 3.633116000000000123e-01 3.513192900000000063e-01 3.133643500000000137e-01 2.964520199999999828e-01 3.368581900000000018e-01 2.048801100000000042e-01 2.517467600000000139e-01 2.393343500000000013e-01 1.715705399999999936e-01 4.356513000000000052e-02 5.188680999999999849e-02 1.153491299999999942e-01 4.407150099999999904e-02 -3.486980199999999835e-02 8.465224799999999938e-02 3.240890800000000016e-02 3.607282199999999744e-02 -6.073171900000000345e-02 -1.768645799999999865e-02 6.429839099999999641e-02 -1.267380899999999942e-02 -2.564557699999999926e-02 -1.166167299999999914e-02 -1.136191000000000006e-01 -1.011923899999999932e-01 -1.629025799999999913e-01 -9.111466199999999904e-02 -8.858406200000000508e-02 -6.737718099999999433e-02 -1.787798499999999902e-01 -1.805269100000000126e-01 -1.685692599999999985e-01 -2.050994100000000098e-01 -1.733561999999999881e-01 -2.672538600000000097e-01 -1.554136200000000023e-01 -1.665266199999999863e-01 -1.578961299999999957e-01 -1.250513400000000108e-01 -2.291734500000000008e-01 -1.225910100000000003e-01 -1.174889199999999967e-01 -1.193842999999999988e-01 -1.483726200000000106e-01 -2.114955400000000096e-01 5.393789000000000222e-02 -2.317667800000000056e-01 -1.559694699999999989e-01 -3.808695299999999978e-02 -1.363041999999999865e-01 -4.356569999999999887e-02 -1.340457700000000085e-01 -4.075000299999999992e-02 -1.077287100000000053e-01 -1.793921300000000107e-01 -1.735702100000000025e-01 -1.984155599999999908e-01 -1.601893799999999923e-01 -1.424116500000000007e-01 -1.470939699999999906e-01 -1.461498699999999873e-01 -7.004211600000000149e-02 4.592810299999999790e-02 4.349846699999999899e-02 2.865230100000000224e-01 6.067594400000000388e-01 7.633705100000000021e-01 1.006259100000000073e+00 1.332558099999999968e+00 1.356151899999999966e+00 1.310948199999999897e+00 1.148452800000000051e+00 8.943643999999999483e-01 6.754604600000000403e-01 2.031958399999999887e-01 -2.371743799999999902e-01 -4.091571199999999853e-01 -4.478902300000000003e-01 -3.434747499999999953e-01 -4.266344200000000142e-01 -3.824979000000000018e-01 -4.020046299999999739e-01 -3.594875499999999890e-01 -3.876066899999999760e-01 -5.038655600000000456e-01 -1.414573899999999884e-01 6.047073699999999663e-01 6.815404800000000041e-01 5.263535799999999876e-01 6.879976199999999764e-01 4.988462000000000174e-01 2.163810800000000034e-01 3.908752899999999864e-01
1.000000000000000000e+00 -2.012515000000000054e+00 -3.844161600000000067e+00 -4.090215899999999571e+00 -4.121164600000000178e+00 -3.673670800000000014e+00 -2.735130700000000026e+00 -1.616462700000000030e+00 -1.438018900000000100e+00 -1.094038199999999961e+00 -6.477754399999999801e-01 -5.488659299999999464e-01 -5.991786000000000056e-01 -5.918100699999999659e-01 -5.632389599999999552e-01 -5.288639499999999716e-01 -5.277562399999999876e-01 -5.147897399999999957e-01 -5.244813299999999678e-01 -5.341033099999999978e-01 -4.800949099999999858e-01 -5.700677600000000345e-01 -5.250587199999999788e-01 -5.700425199999999970e-01 -6.137701800000000540e-01 -5.837194199999999888e-01 -6.560987000000000346e-01 -6.591987999999999737e-01 -6.860659199999999958e-01 -7.019119000000000330e-01 -6.721008099999999930e-01 -6.936122599999999805e-01 -7.343904199999999882e-01 -6.875072500000000142e-01 -6.965004999999999669e-01 -7.053666299999999945e-01 -7.353314699999999871e-01 -7.615110400000000279e-01 -7.219894700000000221e-01 -6.936051699999999931e-01 -6.464252900000000412e-01 -5.841120899999999727e-01 -5.522645400000000260e-01 -3.919327599999999912e-01 -3.424872600000000156e-01 -3.002707700000000202e-01 -1.572165399999999880e-01 -1.851598799999999989e-01 -1.158866600000000024e-01 -1.149166900000000019e-01 -1.134383699999999967e-01 -1.934111700000000142e-02 -4.745285700000000106e-02 -1.749298599999999856e-02 -4.459162900000000068e-02 -5.523195600000000045e-03 2.585483700000000204e-03 1.974413599999999894e-02 2.878455200000000144e-02 4.311368299999999987e-02 -6.125364299999999998e-03 3.272533300000000228e-02 2.609526499999999943e-02 4.271637899999999877e-02 7.927369700000000408e-02 6.000600100000000325e-02 6.455479999999999552e-02 1.756709499999999924e-01 1.322675199999999995e-01 1.934455700000000111e-01 2.457658799999999921e-01 2.515485199999999977e-01 2.645951599999999959e-01 3.029552300000000198e-01 3.103270399999999984e-01 2.857607600000000025e-01 3.168765299999999896e-01 4.963016599999999778e-01 4.175718900000000011e-01 4.451480700000000068e-01 4.148300500000000057e-01 4.315356200000000086e-01 4.345309199999999872e-01 3.555623600000000217e-01 4.843810100000000007e-01 4.402054499999999981e-01 4.028384300000000251e-01 4.483577899999999783e-01 4.109101000000000004e-01 4.517397000000000218e-01 4.339327299999999887e-01 4.309416099999999750e-01 4.406067300000000020e-01 5.402042900000000314e-01 5.207579199999999853e-01 6.560618700000000469e-01 7.648610900000000212e-01 8.810806199999999810e-01 1.009811800000000037e+00 1.103555300000000017e+00 1.279460599999999948e+00 1.467908100000000049e+00 1.669248599999999971e+00 1.621917899999999912e+00 1.609659500000000021e+00 1.600763299999999889e+00 1.434813899999999975e+00 1.384512200000000082e+00 1.172629600000000050e+00 9.819415700000000413e-01 8.427860600000000035e-01 4.660452600000000167e-01 2.686251499999999792e-01 2.392518899999999948e-01 2.010887799999999948e-01 1.629550600000000127e-01 2.037631799999999882e-01 2.050762999999999892e-01 2.092160799999999987e-01 1.694536899999999902e-01 2.274960799999999894e-01 2.718691400000000091e-01 2.352022800000000136e-01 2.408671000000000006e-01 2.866503599999999929e-01 2.594337700000000080e-01 3.138875700000000046e-01 2.590813599999999828e-01 4.123937400000000086e-01 6.458949200000000390e-01 1.022943300000000111e+00 1.150404200000000099e+00 1.190223299999999984e+00 1.330603399999999992e+00 1.297486399999999929e+00 1.264153099999999919e+00 1.131445299999999987e+00 1.212208100000000011e+00 1.239823200000000014e+00 1.139361300000000021e+00 -6.182605500000000198e-01
2.000000000000000000e+00 8.045268899999999945e-01 -7.744105000000000259e-03 -1.013768199999999897e+00 -1.878714400000000007e+00 -2.223649800000000010e+00 -2.423541000000000167e+00 -2.520811800000000158e+00 -2.557059000000000193e+00 -2.480248200000000125e+00 -2.149683599999999917e+00 -1.655534899999999920e+00 -1.183901300000000045e+00 -8.189996200000000393e-01 -6.178407799999999783e-01 -5.225473200000000373e-01 -3.001164399999999843e-01 5.079250300000000273e-02 2.706410499999999941e-01 3.113626999999999923e-01 3.110842699999999961e-01 3.221109899999999859e-01 3.569514799999999877e-01 3.661080600000000129e-01 3.169663500000000078e-01 2.922480700000000264e-01 3.084817599999999937e-01 3.370220999999999911e-01 3.725313000000000097e-01 3.441579499999999903e-01 2.828791299999999787e-01 3.382535500000000139e-01 3.749626400000000137e-01 2.875224699999999745e-01 2.775777400000000172e-01 2.573916900000000063e-01 3.049402800000000080e-01 3.634029799999999866e-01 2.427839199999999864e-01 2.548686399999999797e-01 2.827454200000000251e-01 2.778301699999999874e-01 2.516229999999999856e-01 1.514150700000000127e-01 1.568767600000000040e-01 1.612806099999999909e-01 1.720542499999999919e-01 1.684875899999999926e-01 1.339540399999999964e-01 1.409655300000000056e-01 1.224188799999999938e-01 1.183212800000000009e-01 1.114131000000000010e-01 5.032106299999999921e-02 5.876561000000000284e-02 5.607986200000000115e-02 -1.135275999999999993e-02 4.196435600000000127e-02 1.048571600000000048e-01 9.261162800000000139e-02 7.797649399999999342e-02 6.599501400000000462e-02 1.369785099999999978e-01 2.024395300000000064e-01 1.593816899999999925e-01 1.978348400000000118e-01 2.373992900000000128e-01 2.177375400000000072e-01 2.721302800000000022e-01 3.060090699999999941e-01 3.570021299999999731e-01 4.187247499999999789e-01 4.276515799999999756e-01 4.503909700000000016e-01 4.626288100000000014e-01 4.764161499999999827e-01 4.938214499999999951e-01 4.631056900000000143e-01 5.233408099999999896e-01 5.736495900000000425e-01 4.993700799999999940e-01 5.261188500000000268e-01 5.777755900000000056e-01 5.678887099999999633e-01 5.534658500000000370e-01 5.654767400000000332e-01 5.961896100000000365e-01 5.803735300000000263e-01 5.838061300000000342e-01 6.147718399999999583e-01 6.150075600000000087e-01 6.453083099999999961e-01 6.506002300000000016e-01 6.138559300000000496e-01 6.594680000000000542e-01 6.484491999999999479e-01 5.661457500000000032e-01 6.241815099999999950e-01 6.697661200000000203e-01 6.173406299999999458e-01 6.312295900000000071e-01 6.140013800000000410e-01 5.977547199999999616e-01 6.208515900000000087e-01 6.594943500000000070e-01 7.270079699999999479e-01 7.112950000000000106e-01 7.367284899999999581e-01 7.339150599999999525e-01 7.168832200000000432e-01 7.700909799999999805e-01 7.495460200000000350e-01 7.839214199999999799e-01 8.215303900000000548e-01 7.299176099999999945e-01 6.519663999999999460e-01 5.637375599999999709e-01 5.329625900000000138e-01 6.804852200000000018e-01 7.062731899999999952e-01 5.978012999999999799e-01 5.450371800000000100e-01 4.684692699999999932e-01 3.727314400000000250e-01 3.123774200000000167e-01 3.982483399999999785e-01 6.337180599999999719e-01 6.148391500000000010e-01 2.384473000000000009e-01 -2.590839899999999862e-01 -8.732115999999999767e-01 -1.502402900000000097e+00 -2.242565100000000200e+00 -3.041887500000000077e+00 -3.747449299999999983e+00 -3.892761300000000091e+00 -3.450070999999999888e+00 -2.834748199999999940e+00 -1.492387499999999978e+00 -9.310942100000000332e-01 -1.876145999999999925e-01
2.000000000000000000e+00 1.012499000000000038e+00 6.424518999999999647e-01 2.680895300000000203e-01 -3.198176899999999878e-01 -5.890528900000000512e-01 -8.651056599999999985e-01 -1.204406199999999982e+00 -1.432149399999999906e+00 -1.502498600000000017e+00 -1.409785599999999972e+00 -1.105263300000000060e+00 -6.642155299999999984e-01 -4.096114799999999723e-01 -2.648177500000000184e-01 -1.498232399999999964e-01 -1.583571900000000088e-01 -3.299879599999999691e-02 2.904843500000000023e-01 5.469118800000000169e-01 6.658878099999999689e-01 6.698933200000000143e-01 6.241037000000000390e-01 6.424461700000000386e-01 6.292262600000000372e-01 5.861085999999999796e-01 6.599198899999999535e-01 6.936432599999999837e-01 6.242268600000000500e-01 6.065921199999999569e-01 5.860058200000000106e-01 5.464236300000000490e-01 5.858481500000000119e-01 6.003964999999999996e-01 5.633115800000000339e-01 5.838634799999999903e-01 5.945837299999999770e-01 5.704280600000000145e-01 5.729736399999999508e-01 5.896711700000000222e-01 6.201520700000000552e-01 6.239830600000000338e-01 5.593022500000000008e-01 5.335021500000000083e-01 5.703947000000000322e-01 5.409121599999999752e-01 4.803778799999999793e-01 4.870902100000000234e-01 4.867272799999999844e-01 4.331840900000000216e-01 3.883634200000000147e-01 3.660479999999999845e-01 3.629324999999999912e-01 3.363542700000000107e-01 3.453476300000000165e-01 3.350256600000000029e-01 2.140328699999999862e-01 2.758057999999999899e-01 3.082891500000000118e-01 1.781129899999999988e-01 2.233023299999999933e-01 1.892064199999999863e-01 1.439691100000000112e-01 1.986028499999999974e-01 1.095171000000000061e-01 8.697026500000000493e-02 1.226924699999999979e-01 8.540078700000000578e-02 4.003903100000000270e-02 -2.121181200000000003e-02 -3.661722299999999736e-02 3.706290799999999944e-03 3.545686299999999819e-02 -1.701318799999999853e-02 -6.624516299999999580e-02 -2.790739000000000067e-02 -3.966308999999999807e-02 2.854491499999999970e-03 6.505186699999999933e-02 -1.494787799999999951e-02 4.681816600000000307e-03 7.678624500000000297e-02 6.471442500000000597e-02 1.232808799999999955e-01 2.061173599999999995e-01 2.272215399999999996e-01 2.465795799999999927e-01 2.810835799999999995e-01 3.424931500000000240e-01 3.717151499999999942e-01 3.626848300000000136e-01 4.910472399999999960e-01 5.127325000000000355e-01 3.996676800000000251e-01 5.337396100000000310e-01 5.986126000000000502e-01 4.955495400000000106e-01 5.222066699999999839e-01 5.808845200000000153e-01 6.273883900000000180e-01 6.555173899999999776e-01 6.670246199999999570e-01 6.785142899999999644e-01 6.625347299999999606e-01 6.589356800000000236e-01 6.736281800000000208e-01 7.434266400000000274e-01 7.689999899999999666e-01 6.892051599999999834e-01 7.024540400000000018e-01 7.468789599999999806e-01 6.761962599999999934e-01 6.790367299999999773e-01 7.394683600000000467e-01 6.991154099999999927e-01 7.295310900000000487e-01 7.391025199999999851e-01 5.911893200000000181e-01 4.845002800000000054e-01 3.860807099999999936e-01 3.435310599999999992e-01 3.340891200000000172e-01 1.602928100000000078e-01 -7.655042900000000317e-02 -2.866525799999999902e-01 -4.182175499999999935e-01 -5.534778200000000092e-01 -8.096371500000000276e-01 -1.011613700000000060e+00 -1.180608799999999903e+00 -1.475683499999999926e+00 -1.778751100000000029e+00 -2.066427399999999803e+00 -2.511716999999999977e+00 -3.078479699999999930e+00 -3.299013400000000207e+00 -3.711864600000000181e+00 -4.023063999999999751e+00 -3.723679100000000020e+00 -3.916130700000000076e+00 -1.734061400000000086e+00
1.000000000000000000e+00 -1.369202699999999995e+00 -1.882856800000000108e+00 -2.510266099999999945e+00 -3.424286200000000058e+00 -3.976924499999999973e+00 -4.621251899999999857e+00 -4.313434199999999663e+00 -3.222562400000000160e+00 -1.783055899999999916e+00 -1.331655999999999951e+00 -9.357378899999999611e-01 -1.869451199999999924e-01 -4.315456599999999837e-02 2.204454099999999823e-03 -7.685454199999999791e-02 -2.505110400000000112e-02 -4.796287099999999720e-02 6.373438199999999568e-03 -4.229737900000000300e-02 -1.970841200000000154e-02 -1.638752099999999864e-02 5.360098600000000324e-02 4.362993200000000321e-02 -1.231023799999999974e-01 -5.645824199999999876e-02 8.467962500000000489e-03 -9.603711800000000465e-02 -3.673233499999999790e-02 -1.589554300000000087e-01 -4.244823600000000030e-02 -8.727890100000000595e-02 -1.652839899999999917e-01 -1.593533299999999875e-01 -2.103362099999999957e-01 -1.511923300000000137e-01 -1.586131600000000030e-01 -1.663645599999999947e-01 -1.310404099999999961e-01 -9.186557600000000434e-02 -9.087483400000000155e-02 -1.388979399999999975e-01 -1.001586299999999985e-01 -6.304906999999999873e-02 4.581075400000000214e-02 7.364743899999999857e-03 1.431907299999999883e-01 1.838811499999999932e-01 1.063000499999999932e-01 1.419885600000000137e-01 1.997034500000000046e-01 2.300074199999999902e-01 1.063223699999999994e-01 1.517132399999999992e-01 6.281459799999999927e-02 8.859122199999999725e-02 1.092153000000000013e-01 3.885787300000000111e-02 6.025276400000000032e-02 1.888146599999999953e-02 -1.777786699999999928e-02 -6.078467800000000171e-02 9.770537699999999950e-03 7.985038499999999595e-02 1.715301499999999923e-01 1.873029700000000131e-01 9.219963000000000464e-02 2.386956500000000092e-01 1.583037499999999931e-01 2.332834199999999913e-01 3.552228399999999842e-01 3.904715500000000006e-01 3.974325499999999955e-01 5.150885800000000181e-01 4.785731500000000027e-01 5.801848699999999637e-01 4.892262499999999736e-01 5.623628800000000094e-01 4.792175100000000132e-01 6.054557299999999698e-01 5.963575199999999743e-01 5.068602399999999619e-01 5.112824500000000549e-01 4.771081600000000034e-01 4.307988700000000004e-01 4.067026799999999831e-01 4.279720599999999875e-01 4.157408100000000162e-01 3.786438400000000093e-01 4.572536300000000220e-01 3.933097999999999872e-01 3.438665399999999983e-01 2.640928599999999848e-01 2.705060499999999979e-01 3.726447099999999901e-01 3.259942499999999854e-01 3.373755500000000240e-01 4.176551700000000200e-01 3.869579499999999950e-01 4.588031900000000274e-01 5.298866199999999749e-01 6.573459200000000280e-01 7.068238300000000418e-01 7.618793200000000265e-01 9.423849800000000387e-01 1.167411799999999999e+00 1.236010300000000006e+00 1.105685800000000052e+00 8.499249300000000229e-01 6.043848899999999524e-01 4.634406500000000095e-01 4.848012899999999958e-01 4.816720500000000182e-01 4.835842900000000277e-01 3.323238900000000107e-01 1.971428899999999873e-01 -1.957951499999999873e-02 -2.199791500000000122e-01 -2.061881700000000039e-01 -3.109517299999999818e-01 -2.174003599999999869e-01 -1.019296100000000038e-01 -2.121657799999999983e-01 -1.299415700000000062e-01 -1.835222300000000084e-01 -1.800650299999999870e-01 -3.655786400000000241e-02 -7.666550199999999649e-02 -1.225646299999999939e-01 3.081148200000000115e-02 2.524037599999999770e-01 8.071309599999999529e-01 1.600631099999999973e+00 2.249851800000000068e+00 2.267191299999999909e+00 2.164308899999999980e+00 1.647759799999999997e+00 4.189268700000000067e-01 -1.036374700000000093e+00 -1.485622699999999963e+00 -1.781280500000000044e+00
