1.000000000000000000e+00 -1.062641099999999950e-01 -1.871106200000000053e+00 -2.717852000000000157e+00 -3.862973000000000212e+00 -4.440775099999999753e+00 -4.024691999999999936e+00 -2.840627399999999803e+00 -1.649672999999999945e+00 -1.417167300000000019e+00 -9.081301299999999799e-01 -3.073810399999999943e-01 -2.171750799999999926e-01 -1.643806700000000065e-01 -1.921309099999999881e-01 -2.237015499999999990e-01 -2.087745099999999965e-01 -1.534031899999999948e-01 -2.783760200000000018e-01 -1.386532500000000057e-01 -6.742005199999999768e-03 -1.042280700000000060e-01 -2.149024499999999949e-01 -1.563637300000000063e-01 -9.533664399999999817e-02 -1.544426399999999922e-01 -2.566900400000000082e-01 -1.924787000000000026e-01 -2.396300600000000058e-01 -2.636481600000000203e-01 -2.326741999999999977e-01 -3.315592199999999878e-01 -4.075905699999999854e-01 -4.026488899999999815e-01 -4.006825099999999917e-01 -3.133110599999999746e-01 -3.001984100000000266e-01 -3.990508199999999728e-01 -3.801892399999999839e-01 -5.504129500000000119e-01 -4.141602799999999918e-01 -3.249752799999999775e-01 -2.763872900000000077e-01 -1.312045300000000136e-01 -5.032250700000000243e-02 -7.733312200000000067e-03 8.572113400000000438e-02 9.780183400000000415e-02 -6.467649999999999788e-02 1.402492899999999987e-01 9.056818699999999445e-02 5.990854899999999844e-02 2.138348800000000050e-01 6.467810300000000068e-02 5.372131599999999813e-02 3.582433699999999777e-02 -2.468721899999999983e-02 -3.439635099999999862e-02 -4.303328199999999909e-02 1.295874099999999862e-01 2.725451300000000104e-02 -1.006749100000000063e-01 -1.877525199999999965e-03 -1.229982299999999966e-02 7.468651499999999499e-02 8.656120000000000481e-02 -7.162656900000000104e-02 2.099452699999999894e-01 3.078912699999999947e-01 2.498553199999999919e-01 3.697289400000000059e-01 3.510143900000000095e-01 3.732763399999999843e-01 4.310983299999999740e-01 5.147899200000000119e-01 4.708258399999999955e-01 5.768649099999999530e-01 5.456987100000000313e-01 5.139559200000000105e-01 6.008129800000000520e-01 5.684925600000000356e-01 6.017961499999999742e-01 6.422810500000000200e-01 6.380599700000000318e-01 5.137348900000000551e-01 5.148550400000000415e-01 4.513226799999999761e-01 4.715990700000000091e-01 3.877073600000000009e-01 5.036780100000000093e-01 4.428800900000000040e-01 4.571770700000000187e-01 5.240860000000000518e-01 3.945123099999999772e-01 4.827598000000000167e-01 5.641665500000000444e-01 7.386395999999999518e-01 9.956583100000000464e-01 1.110236900000000082e+00 1.366835100000000081e+00 1.582468200000000103e+00 1.842975299999999983e+00 2.223375400000000113e+00 2.267410499999999995e+00 2.097408300000000114e+00 2.091600600000000032e+00 1.852481199999999939e+00 1.585250999999999966e+00 1.464383800000000013e+00 1.210872900000000030e+00 9.756460500000000424e-01 4.890407900000000030e-01 -1.506194699999999914e-02 -2.106500900000000120e-01 -4.656727399999999739e-01 -4.459868799999999744e-01 -3.446432700000000016e-01 -4.699391399999999774e-01 -4.088265300000000213e-01 -6.465705200000000374e-01 -4.927712899999999729e-01 -4.803232599999999741e-01 -4.967632200000000053e-01 -4.780446799999999996e-01 -5.029299200000000303e-01 -5.367558700000000238e-01 -3.784225600000000189e-01 -2.899357000000000184e-01 -1.077377399999999985e-01 3.853084399999999743e-01 1.233914500000000025e+00 1.569350500000000093e+00 1.179213899999999926e+00 7.420959400000000095e-01 -9.704580100000000098e-02 -6.696827800000000330e-01 -1.220719600000000016e+00 -9.699039400000000199e-01 -2.756258600000000003e-01 1.843014799999999898e-01 -1.335647000000000029e+00
1.000000000000000000e+00 -1.854721499999999912e+00 -4.119731400000000043e+00 -4.145229699999999795e+00 -4.198682599999999709e+00 -3.858193099999999820e+00 -2.936931799999999981e+00 -1.614764599999999994e+00 -1.177000700000000011e+00 -8.409138400000000235e-01 -1.367297299999999938e-01 -1.600184199999999946e-01 -2.559235599999999944e-01 -1.915220900000000059e-01 -2.695247199999999954e-01 -2.133982299999999943e-01 -1.426240799999999864e-01 -2.645575700000000197e-01 -2.030548199999999970e-01 -2.340404000000000095e-01 -3.323147200000000079e-01 -2.343794999999999906e-01 -2.308467800000000014e-01 -3.021578899999999845e-01 -2.621572699999999978e-01 -3.587790000000000146e-01 -4.538098999999999883e-01 -3.157347400000000137e-01 -4.670166399999999829e-01 -5.098228200000000099e-01 -3.939138600000000046e-01 -5.239833499999999589e-01 -5.528808600000000295e-01 -6.792331799999999919e-01 -5.509495300000000206e-01 -5.057608500000000396e-01 -6.747799799999999459e-01 -5.324736799999999493e-01 -5.512246100000000038e-01 -5.583689200000000463e-01 -6.304870399999999986e-01 -4.726078400000000013e-01 -3.798482100000000194e-01 -3.750759499999999913e-01 -3.115282999999999802e-01 -1.867100100000000096e-01 -2.163069200000000136e-01 -1.357386800000000004e-01 -6.350730300000000106e-02 -3.835323899999999731e-02 7.454449900000000018e-02 3.478579899999999919e-02 -8.309746200000000735e-03 6.510175199999999884e-02 -3.253218000000000082e-02 2.823631500000000141e-02 -6.420278699999999727e-02 5.551090899999999717e-02 -4.443601600000000179e-02 9.644870699999999464e-02 1.726540400000000086e-01 2.042815499999999992e-02 4.435834300000000147e-02 1.909813999999999956e-01 1.668488999999999944e-01 2.230458600000000124e-01 1.762404700000000102e-01 2.154953199999999902e-01 2.715632700000000233e-01 3.330313999999999774e-01 3.006983599999999979e-01 3.543758699999999817e-01 4.972436900000000159e-01 4.157501000000000113e-01 3.862031400000000003e-01 4.843919199999999758e-01 4.489629500000000273e-01 3.753239400000000225e-01 3.504830899999999971e-01 4.333660500000000027e-01 4.615879999999999983e-01 5.250622999999999818e-01 4.434304399999999813e-01 4.973332100000000255e-01 3.328932499999999739e-01 2.889989600000000269e-01 3.110693999999999959e-01 3.219591700000000167e-01 4.398156300000000130e-01 4.414945100000000067e-01 4.296918599999999810e-01 3.933770200000000217e-01 4.372583199999999781e-01 4.641046099999999730e-01 4.465310000000000112e-01 6.236146999999999663e-01 6.387330399999999742e-01 9.009739799999999521e-01 1.047235099999999974e+00 1.124650300000000103e+00 1.414276499999999936e+00 1.572154899999999911e+00 1.886895999999999907e+00 2.065022400000000147e+00 2.132138199999999983e+00 1.988963599999999943e+00 1.747715899999999989e+00 1.482994600000000052e+00 1.362762400000000040e+00 1.056893300000000036e+00 7.347497299999999898e-01 4.246372900000000006e-01 2.627669599999999869e-02 -1.699482900000000019e-01 -2.597620400000000274e-01 -2.733497200000000182e-01 -2.081754799999999961e-01 -3.200760599999999956e-01 -2.362831099999999906e-01 -2.823404899999999995e-01 -3.167724599999999779e-01 -1.581757900000000105e-01 -1.769216100000000069e-01 -2.252857000000000054e-01 -1.916916800000000032e-01 -1.652537799999999890e-01 -1.343727799999999972e-01 -1.753744000000000136e-01 -9.935139099999999723e-02 1.142644899999999963e-01 5.472762300000000302e-01 8.726722199999999985e-01 7.868673499999999654e-01 1.044879200000000008e+00 1.006132900000000108e+00 9.091635099999999525e-01 7.945935899999999608e-01 7.560178100000000123e-01 1.102782099999999987e+00 1.034017399999999975e+00 -1.489107399999999970e+00
1.000000000000000000e+00 -1.165806099999999956e+00 -4.225821299999999781e+00 -4.615693900000000127e+00 -4.588000799999999657e+00 -3.524939100000000103e+00 -2.152684300000000217e+00 -1.612041099999999894e+00 -1.301807099999999995e+00 -3.647285100000000058e-01 -1.168801399999999935e-01 -2.398233800000000027e-01 -1.518023699999999920e-01 -1.448225900000000010e-01 -1.300294600000000134e-01 -1.560746899999999882e-01 -1.716224500000000097e-01 -2.025566599999999995e-01 -2.255090899999999954e-01 -1.821347299999999947e-01 -2.299291800000000108e-01 -2.784666599999999770e-01 -3.599262999999999768e-01 -4.339547500000000002e-01 -3.695089100000000237e-01 -4.418669700000000256e-01 -5.125011400000000217e-01 -4.486782300000000112e-01 -5.843492099999999523e-01 -5.789232100000000214e-01 -6.518302500000000554e-01 -6.714687499999999476e-01 -7.107766199999999701e-01 -7.599989400000000117e-01 -6.694894500000000415e-01 -7.765544500000000072e-01 -8.439633300000000116e-01 -8.486182599999999576e-01 -7.866925599999999852e-01 -7.630130000000000523e-01 -7.292984300000000530e-01 -6.391247300000000298e-01 -4.804528399999999921e-01 -3.833679700000000024e-01 -3.635730600000000035e-01 -3.207790500000000100e-01 -1.861296299999999904e-01 -1.258866700000000061e-01 -1.262088700000000008e-01 -1.015823700000000052e-01 -5.985370400000000063e-02 -4.181678600000000162e-02 4.464758099999999869e-02 -2.538322700000000126e-02 3.157901300000000300e-02 5.968798599999999843e-02 6.560353900000000411e-03 8.216856399999999949e-02 1.087825699999999951e-01 1.924040300000000037e-01 1.527796800000000010e-01 1.804204000000000085e-01 2.121662099999999940e-01 1.671611000000000069e-01 2.936200299999999763e-01 3.772006199999999865e-01 4.428817099999999840e-01 3.129818799999999901e-01 4.652214800000000205e-01 5.125320100000000378e-01 5.512964599999999882e-01 5.454475899999999822e-01 5.697219399999999823e-01 5.814544000000000379e-01 6.204960800000000054e-01 6.661884500000000431e-01 5.756783899999999843e-01 5.637175500000000117e-01 6.471976299999999682e-01 6.053061499999999873e-01 4.728935799999999801e-01 5.349284899999999787e-01 5.522834300000000196e-01 4.894382500000000191e-01 4.207931500000000047e-01 4.200886899999999868e-01 3.983420200000000189e-01 3.945947100000000152e-01 3.451739799999999914e-01 3.028171000000000057e-01 4.199725300000000106e-01 3.321465299999999954e-01 3.994267100000000181e-01 2.924351600000000273e-01 3.779852899999999738e-01 3.346432100000000243e-01 3.110881400000000130e-01 3.035367299999999768e-01 2.631702200000000103e-01 4.206964999999999733e-01 5.928934000000000148e-01 9.736203500000000233e-01 1.217435299999999998e+00 1.381907999999999914e+00 1.508138299999999932e+00 1.733503000000000016e+00 1.919992099999999979e+00 1.787192700000000078e+00 1.757424700000000062e+00 1.541933999999999916e+00 1.350767300000000004e+00 1.176835800000000098e+00 8.391082699999999894e-01 5.565793199999999885e-01 9.728081299999999376e-02 -1.821378100000000111e-01 -3.516917399999999749e-01 -2.539834999999999732e-01 -2.649405899999999758e-01 -2.433510700000000027e-01 -2.772001700000000235e-01 -3.100450299999999992e-01 -2.450960000000000083e-01 -2.561209700000000034e-01 -2.231428099999999970e-01 -2.898120200000000035e-01 -2.069458499999999868e-01 -1.560767100000000074e-01 -1.545078199999999902e-01 -1.145584399999999975e-01 1.816120200000000129e-01 6.070991799999999605e-01 1.330932900000000085e+00 1.499883499999999925e+00 1.304713800000000035e+00 1.148369200000000090e+00 7.584092500000000348e-01 5.777363699999999991e-01 6.155549099999999552e-01 1.228841800000000095e+00 -9.371647600000000411e-01
1.000000000000000000e+00 5.248396800000000306e-01 -1.360937499999999911e+00 -2.855315200000000164e+00 -4.540137399999999879e+00 -4.860684700000000191e+00 -3.964690099999999884e+00 -2.561306699999999825e+00 -1.849654099999999968e+00 -1.367842800000000025e+00 -3.745378400000000108e-01 -6.567723899999999837e-02 -9.103875599999999846e-02 -5.878865999999999953e-02 -1.955004399999999906e-02 -1.057368700000000002e-02 -9.190731300000000437e-02 -7.237124200000000229e-03 2.118056600000000136e-02 -2.534855199999999989e-02 -8.396090300000000339e-02 -8.125707899999999595e-02 -1.402162700000000040e-01 -1.933194500000000038e-01 -2.073536300000000110e-01 -3.243353600000000170e-01 -3.680114099999999833e-01 -3.557968699999999873e-01 -3.722676999999999792e-01 -5.154499000000000164e-01 -5.291637000000000146e-01 -6.624023700000000181e-01 -7.819984399999999614e-01 -8.436191499999999843e-01 -8.252864899999999837e-01 -8.432045599999999919e-01 -8.331512800000000496e-01 -8.183338399999999790e-01 -8.482932600000000489e-01 -7.742497600000000091e-01 -8.129446999999999646e-01 -7.507044499999999676e-01 -6.393263799999999719e-01 -4.565992199999999723e-01 -3.779964599999999786e-01 -2.485592799999999936e-01 -1.825279999999999958e-01 -1.973303999999999891e-01 -8.719348999999999850e-02 -1.971254000000000062e-02 -2.472227600000000136e-02 -6.010714100000000282e-02 -1.078984600000000016e-01 -3.349306600000000189e-02 4.123325199999999802e-02 1.166233099999999974e-02 -5.073981600000000008e-02 4.355916099999999902e-02 1.023376299999999989e-03 2.940418300000000040e-02 8.500155299999999359e-02 8.423665700000000645e-02 2.236214599999999941e-01 2.268662599999999863e-01 2.764330400000000187e-01 2.480182900000000024e-01 2.009656499999999957e-01 3.575722700000000254e-01 3.307381899999999875e-01 4.543463300000000205e-01 5.146029699999999929e-01 5.398203000000000307e-01 6.960214700000000310e-01 5.711227899999999913e-01 7.299062800000000184e-01 7.238607500000000528e-01 6.847050000000000081e-01 8.120824700000000007e-01 8.183876799999999507e-01 8.059111300000000311e-01 7.811655499999999863e-01 7.579799999999999871e-01 6.485110600000000280e-01 6.273533799999999605e-01 5.759515200000000501e-01 5.315142899999999448e-01 5.096357400000000037e-01 3.432659699999999758e-01 4.076304499999999775e-01 4.255338399999999965e-01 3.520255400000000257e-01 3.316508200000000128e-01 2.986574000000000173e-01 2.016185600000000022e-01 2.792562199999999994e-01 3.509990800000000188e-01 2.628093100000000182e-01 2.967366599999999854e-01 4.215655500000000111e-01 5.832754599999999678e-01 8.287281399999999465e-01 9.804476899999999828e-01 1.067921099999999957e+00 1.180722199999999944e+00 1.476813300000000106e+00 1.634688799999999942e+00 1.584480899999999970e+00 1.501315100000000013e+00 1.370723499999999984e+00 1.071883700000000106e+00 8.295492199999999761e-01 6.599590600000000418e-01 4.701582300000000103e-01 3.422440800000000061e-01 -6.373389200000000032e-02 -4.287452600000000169e-01 -4.294202699999999928e-01 -4.940496400000000121e-01 -4.499647999999999981e-01 -5.273403599999999525e-01 -4.352040400000000142e-01 -4.928194300000000028e-01 -5.257902199999999748e-01 -4.748871900000000146e-01 -4.999484799999999729e-01 -4.487361100000000214e-01 -4.345054999999999890e-01 -5.602042799999999989e-01 -4.851283499999999860e-01 -3.277358699999999847e-01 -2.507225699999999780e-01 4.128113500000000213e-01 9.671143599999999507e-01 9.938439300000000420e-01 1.217441500000000065e+00 1.809305500000000011e+00 1.824049299999999985e+00 1.486501099999999909e+00 8.686356100000000025e-01 1.238719600000000032e+00 1.023374299999999959e+00
1.000000000000000000e+00 1.341826699999999928e+00 -4.454241199999999790e-01 -2.217838400000000210e+00 -3.356822800000000218e+00 -4.128301699999999741e+00 -3.484104799999999891e+00 -2.431565599999999883e+00 -1.950242299999999984e+00 -1.865766199999999930e+00 -7.608299499999999771e-01 -4.282419700000000273e-01 -5.069380199999999892e-01 -3.344835700000000078e-01 -3.503020000000000023e-01 -4.951890099999999850e-01 -4.334880400000000189e-01 -4.286076200000000225e-01 -4.907655000000000212e-01 -4.256405999999999801e-01 -4.841111200000000059e-01 -6.138683799999999913e-01 -4.863567799999999886e-01 -5.816732100000000516e-01 -5.780190200000000500e-01 -6.930403600000000219e-01 -6.644986299999999790e-01 -7.226055000000000117e-01 -8.272408100000000486e-01 -7.669980400000000476e-01 -8.428522400000000303e-01 -9.042801599999999995e-01 -9.912551600000000240e-01 -9.750890700000000022e-01 -1.001501900000000056e+00 -9.776805800000000213e-01 -9.987088100000000024e-01 -1.044072499999999959e+00 -1.093168899999999999e+00 -1.072382799999999969e+00 -9.321229399999999554e-01 -9.234043400000000457e-01 -8.387253599999999754e-01 -6.208499600000000340e-01 -6.908917900000000056e-01 -5.358890800000000176e-01 -5.891585000000000294e-01 -4.263059299999999996e-01 -3.723630099999999943e-01 -2.598104099999999916e-01 -1.667689300000000097e-01 -1.095677500000000054e-01 1.167738500000000020e-02 -8.393495900000000343e-02 -4.674706800000000273e-02 -6.651660500000000642e-02 -1.533229799999999976e-01 6.638673300000000332e-02 1.495877599999999863e-01 -2.462583700000000111e-02 1.060280900000000054e-01 1.894775399999999999e-01 2.363986200000000037e-01 1.287188999999999972e-01 2.206360599999999950e-01 3.513074800000000053e-01 4.413689900000000166e-01 4.563298700000000263e-01 4.479447300000000132e-01 5.645334100000000133e-01 5.850116800000000339e-01 5.244378899999999621e-01 6.088136800000000237e-01 6.101824599999999821e-01 6.057560899999999693e-01 5.972505299999999462e-01 6.396250900000000073e-01 6.459463800000000422e-01 5.692444700000000024e-01 5.755248899999999557e-01 6.491429100000000174e-01 5.519005999999999634e-01 4.597198499999999854e-01 5.247005200000000036e-01 5.120417600000000125e-01 6.317852299999999754e-01 4.156520100000000162e-01 3.612862099999999965e-01 4.749704900000000229e-01 4.844075700000000095e-01 4.352540400000000087e-01 3.941706999999999850e-01 3.204640100000000213e-01 3.627862000000000031e-01 3.301953599999999933e-01 2.846953099999999792e-01 3.026193300000000197e-01 2.914009399999999972e-01 1.546291200000000088e-01 3.261516899999999941e-01 4.178934100000000207e-01 6.022968699999999842e-01 8.478884599999999550e-01 1.090531600000000045e+00 1.317721499999999990e+00 1.237245799999999951e+00 1.496108299999999947e+00 1.778931500000000110e+00 2.058663899999999991e+00 1.906498800000000049e+00 1.914575700000000102e+00 1.769206800000000079e+00 1.609648900000000049e+00 1.400703000000000031e+00 1.120892500000000069e+00 5.114672000000000107e-01 -2.448042200000000168e-02 -2.556671200000000255e-01 -3.160508899999999732e-01 -2.605783500000000141e-01 -3.592810100000000118e-01 -2.052616499999999899e-01 -2.905218600000000206e-01 -2.105594000000000077e-01 -1.381698100000000040e-01 -2.129658500000000121e-01 -1.153098899999999982e-01 -2.222847199999999912e-01 -2.285169900000000032e-01 -1.619890999999999970e-01 -2.223752499999999965e-01 -1.540762699999999874e-01 1.002441300000000007e-01 5.379278299999999957e-01 9.300127599999999939e-01 1.289312199999999908e+00 1.566973200000000066e+00 1.719838999999999896e+00 1.993356799999999929e+00 1.354180099999999998e+00 1.558940699999999957e+00
2.000000000000000000e+00 -3.248145100000000007e-01 -1.069826100000000002e+00 -1.492487099999999955e+00 -2.316752099999999981e+00 -2.599251199999999873e+00 -2.478607300000000180e+00 -2.213981899999999836e+00 -1.763567499999999955e+00 -1.300715499999999913e+00 -7.988886099999999990e-01 -4.727452600000000005e-01 -4.010438399999999848e-01 -3.019253199999999970e-01 -9.350827000000000444e-02 2.277376000000000122e-01 5.248072000000000292e-01 6.202947899999999848e-01 5.955027499999999696e-01 5.360649699999999740e-01 4.938749700000000242e-01 5.161778599999999884e-01 4.960198200000000002e-01 4.791524999999999812e-01 5.303412100000000073e-01 5.527683199999999797e-01 5.685289300000000434e-01 5.736107400000000078e-01 5.528449100000000227e-01 6.063090700000000055e-01 6.372229900000000447e-01 5.441909499999999511e-01 4.611978500000000203e-01 4.580199300000000195e-01 4.854187799999999942e-01 4.935610200000000169e-01 4.640014499999999820e-01 4.569813600000000031e-01 5.153193000000000357e-01 5.370039199999999679e-01 4.661239400000000144e-01 4.102680799999999794e-01 4.156439599999999790e-01 4.137331000000000203e-01 4.195877199999999974e-01 4.407042500000000196e-01 3.766978000000000271e-01 2.792139100000000096e-01 2.689146000000000036e-01 2.605695299999999937e-01 2.506484099999999882e-01 3.288087599999999777e-01 3.675634099999999793e-01 3.037131599999999820e-01 2.284442999999999890e-01 1.531958599999999893e-01 1.009222500000000050e-01 1.128601999999999939e-01 1.091795599999999949e-01 4.669260499999999814e-02 2.386526300000000114e-02 7.552499799999999597e-02 7.509009899999999349e-02 1.863955800000000095e-03 -6.536066899999999971e-03 5.048339999999999772e-02 8.308090799999999498e-02 8.177531000000000383e-02 5.341843899999999812e-02 6.649239899999999370e-02 1.484879500000000074e-01 1.777221499999999954e-01 1.674109000000000014e-01 1.863677099999999920e-01 1.773781799999999964e-01 1.731169100000000127e-01 2.534489999999999799e-01 3.270331899999999736e-01 3.400637100000000190e-01 3.799840700000000071e-01 4.425222999999999796e-01 5.012580300000000211e-01 5.617380899999999677e-01 5.272258800000000356e-01 4.737396899999999911e-01 5.359180199999999950e-01 5.796291999999999556e-01 5.799572200000000510e-01 6.170168400000000108e-01 6.635169300000000048e-01 6.983210499999999987e-01 6.603123400000000531e-01 6.338004900000000497e-01 7.291124799999999517e-01 7.645386499999999863e-01 7.390122700000000266e-01 7.598032599999999803e-01 7.332365400000000477e-01 7.347209700000000288e-01 8.103055500000000411e-01 8.275148500000000240e-01 7.935961999999999739e-01 7.335576700000000505e-01 6.989949100000000248e-01 7.329759500000000427e-01 7.450146699999999900e-01 7.814397199999999488e-01 8.411131499999999761e-01 8.545026900000000092e-01 8.804298099999999794e-01 8.078789800000000243e-01 6.659589900000000284e-01 6.201757900000000046e-01 4.823938400000000182e-01 3.415585300000000268e-01 4.005433600000000149e-01 4.122482700000000277e-01 3.439831799999999995e-01 2.797639199999999993e-01 1.430120500000000017e-01 3.961552699999999760e-02 -2.621268399999999998e-02 -1.653638299999999894e-01 -2.694167299999999932e-01 -2.957482799999999745e-01 -3.875791900000000179e-01 -6.176404399999999573e-01 -9.437771099999999747e-01 -1.356677399999999922e+00 -1.828119499999999897e+00 -2.327879999999999949e+00 -2.791952300000000164e+00 -3.121026300000000031e+00 -3.473919400000000213e+00 -3.727497599999999967e+00 -3.478009000000000128e+00 -2.814991800000000044e+00 -1.742705399999999960e+00 -6.213021199999999578e-01 1.026522600000000056e-02 9.191992700000000127e-01
2.000000000000000000e+00 1.920821799999999913e-02 -6.395443499999999837e-01 -1.038212499999999983e+00 -1.687832900000000080e+00 -1.996399800000000058e+00 -2.423734699999999798e+00 -2.612889500000000087e+00 -2.465320600000000084e+00 -2.124402499999999971e+00 -1.726690700000000023e+00 -1.349532900000000035e+00 -8.226186500000000068e-01 -5.095220700000000491e-01 -4.814937400000000034e-01 -4.147540000000000115e-01 -1.540501499999999968e-01 1.904352199999999884e-01 3.060464600000000202e-01 3.029028300000000118e-01 3.402559499999999737e-01 3.137474399999999886e-01 3.068871100000000185e-01 3.377033999999999869e-01 3.206674800000000047e-01 3.211259599999999881e-01 3.483991100000000118e-01 3.599942099999999812e-01 4.033900899999999790e-01 4.124104900000000185e-01 3.530243399999999920e-01 3.483991100000000118e-01 3.705448700000000262e-01 3.439098700000000064e-01 3.286273800000000245e-01 3.064687099999999775e-01 2.790957600000000260e-01 2.718278499999999820e-01 2.297856600000000027e-01 2.555265500000000189e-01 2.995590699999999829e-01 2.617699299999999840e-01 2.731325800000000137e-01 2.743074999999999819e-01 2.164580799999999972e-01 1.930172199999999894e-01 2.097924200000000072e-01 2.296474799999999872e-01 2.098634299999999897e-01 1.869494999999999907e-01 1.990158599999999889e-01 2.097924200000000072e-01 1.638392300000000024e-01 8.257773999999999670e-02 9.405123099999999903e-02 1.503877000000000130e-01 1.231632399999999933e-01 6.595751199999999592e-02 3.254691199999999729e-02 9.153654000000000651e-03 -2.201099600000000142e-02 -3.276929099999999900e-02 -2.157152700000000093e-03 -1.800425700000000051e-03 -1.121427499999999924e-02 6.002179700000000173e-02 8.851156400000000091e-02 2.692564299999999911e-02 4.495278700000000099e-02 8.726763599999999566e-02 9.310987099999999683e-02 1.231632399999999933e-01 1.372105000000000130e-01 1.784571000000000074e-01 2.291741700000000104e-01 2.014489600000000102e-01 2.271182499999999937e-01 3.465656699999999923e-01 3.727867899999999790e-01 3.412227600000000138e-01 4.074408999999999947e-01 4.523541300000000209e-01 4.313870300000000046e-01 4.857660500000000048e-01 5.485141100000000547e-01 5.833983000000000363e-01 5.736349800000000165e-01 5.068475700000000250e-01 5.541456399999999949e-01 6.079942699999999478e-01 6.119967600000000285e-01 5.909608200000000533e-01 5.082559599999999511e-01 5.574632999999999949e-01 5.931269500000000416e-01 5.797984499999999652e-01 6.256124899999999656e-01 5.978908499999999737e-01 6.044324699999999995e-01 5.935166100000000000e-01 5.833852800000000061e-01 6.429383300000000023e-01 5.913400699999999954e-01 5.833085999999999549e-01 6.598800000000000221e-01 6.284461500000000367e-01 6.082866599999999790e-01 6.564285600000000498e-01 6.586921799999999605e-01 6.723458599999999619e-01 6.452209300000000258e-01 5.909608200000000533e-01 6.579663500000000331e-01 7.155772099999999636e-01 7.495823600000000031e-01 7.301246399999999914e-01 6.082866599999999790e-01 5.257723399999999492e-01 4.144656099999999843e-01 3.205001499999999837e-01 3.971140899999999752e-01 4.870057999999999887e-01 5.397893599999999958e-01 5.927711900000000034e-01 4.890549399999999935e-01 4.256161099999999919e-01 5.216574699999999565e-01 5.959918199999999500e-01 7.949715800000000110e-01 9.398267900000000230e-01 7.963763099999999762e-01 4.177024599999999976e-01 -2.062802499999999983e-01 -8.361688600000000138e-01 -1.575865800000000094e+00 -1.980796100000000060e+00 -2.822229000000000099e+00 -3.895356699999999783e+00 -4.003143500000000188e+00 -4.972118599999999944e+00 -2.860318200000000033e+00
2.000000000000000000e+00 9.522165900000000294e-01 1.066581500000000071e+00 9.232215000000000282e-01 3.173012900000000136e-01 -1.687679099999999932e-01 -5.265006300000000250e-01 -7.161433400000000171e-01 -9.516020200000000484e-01 -1.263848700000000047e+00 -1.379884399999999900e+00 -1.406117400000000073e+00 -1.369894399999999957e+00 -1.098696600000000023e+00 -7.467862899999999637e-01 -4.720580999999999805e-01 -2.988328000000000095e-01 -2.863160399999999939e-01 -1.806896899999999861e-01 9.810743900000000461e-02 3.888299399999999850e-01 5.715662200000000137e-01 5.557158100000000323e-01 5.642551599999999778e-01 5.689274300000000117e-01 5.084087900000000548e-01 5.671813700000000180e-01 5.655054800000000048e-01 5.054476700000000156e-01 5.415876400000000368e-01 5.793399900000000269e-01 5.724739199999999695e-01 5.328678300000000423e-01 5.395556700000000427e-01 5.610690999999999873e-01 5.117449200000000475e-01 4.858731199999999917e-01 5.068600500000000064e-01 5.073655599999999932e-01 5.093327399999999505e-01 4.796074300000000012e-01 4.300775299999999857e-01 4.880517100000000275e-01 5.252952199999999516e-01 4.677131800000000061e-01 4.699251999999999874e-01 4.635972199999999765e-01 4.001463299999999945e-01 3.924566099999999835e-01 4.404929799999999784e-01 4.198370599999999842e-01 3.267397599999999902e-01 3.344244800000000239e-01 3.711218199999999912e-01 3.665846300000000224e-01 3.490213699999999974e-01 2.666152999999999995e-01 2.926068099999999950e-01 2.968124899999999844e-01 1.898367499999999986e-01 2.276528200000000057e-01 2.334287700000000076e-01 2.085050900000000040e-01 2.455673399999999951e-01 1.937263399999999969e-01 1.540612799999999949e-01 1.613087300000000113e-01 1.819574800000000048e-01 1.624942699999999962e-01 8.717801099999999970e-02 9.935547399999999918e-02 1.396299500000000027e-01 1.271180799999999944e-01 7.652111300000000171e-02 5.777031600000000211e-02 1.326739399999999902e-01 1.573857300000000015e-01 1.610068299999999897e-01 1.697865799999999925e-01 1.343935300000000110e-01 1.849901300000000026e-01 1.977067499999999867e-01 1.469697199999999981e-01 1.902714199999999967e-01 2.486867899999999909e-01 3.046825300000000070e-01 3.457492300000000185e-01 3.535638400000000181e-01 4.171713300000000069e-01 5.097289299999999690e-01 5.404671500000000073e-01 5.103037099999999660e-01 4.915286999999999851e-01 5.224387499999999518e-01 5.909956200000000548e-01 6.505689000000000055e-01 6.381630000000000358e-01 6.166181800000000157e-01 6.623491500000000531e-01 6.822751299999999519e-01 6.418707799999999741e-01 6.409978200000000514e-01 6.702172299999999971e-01 6.695147500000000473e-01 6.758958400000000255e-01 7.051184200000000235e-01 7.251629800000000126e-01 7.017008900000000216e-01 6.816160599999999681e-01 7.248761500000000524e-01 7.387526199999999710e-01 7.194753099999999790e-01 7.214367400000000208e-01 6.960235099999999564e-01 6.743148599999999604e-01 6.499345699999999892e-01 5.284776799999999497e-01 4.048416699999999868e-01 3.617426000000000252e-01 3.238532399999999867e-01 3.118532399999999760e-01 2.110441999999999874e-01 -8.492243899999999887e-03 -1.182561099999999976e-01 -2.475405599999999928e-01 -5.358231300000000363e-01 -7.963114100000000528e-01 -9.193192100000000533e-01 -1.005815499999999973e+00 -1.214951300000000067e+00 -1.449702400000000058e+00 -1.746297500000000058e+00 -2.241586199999999973e+00 -2.769440599999999808e+00 -3.270985700000000218e+00 -3.474777800000000028e+00 -3.904919000000000029e+00 -4.217422199999999677e+00 -3.546346999999999916e+00 -3.145026999999999795e+00 -1.388619400000000059e+00
1.000000000000000000e+00 -2.005152600000000007e-01 -3.261576699999999995e+00 -4.293480999999999881e+00 -4.484428099999999695e+00 -3.995057500000000150e+00 -2.734320199999999979e+00 -1.772734299999999985e+00 -1.552816399999999986e+00 -7.675651300000000399e-01 -5.958483400000000318e-02 -2.135432200000000058e-01 -1.242190999999999990e-01 -1.588651199999999986e-01 -1.247900100000000068e-01 -1.725549399999999900e-01 -1.122006900000000057e-01 -1.347683799999999932e-01 -1.547427000000000108e-01 -1.683149800000000029e-01 -1.688328299999999893e-01 -1.966100299999999912e-01 -2.611572200000000232e-01 -2.006412399999999985e-01 -3.371374100000000262e-01 -3.346949799999999753e-01 -4.130874999999999964e-01 -4.924760400000000038e-01 -5.008018600000000431e-01 -4.898318400000000183e-01 -5.903633700000000539e-01 -6.551167500000000254e-01 -6.191976799999999725e-01 -7.574070499999999706e-01 -7.385916999999999621e-01 -7.230354900000000029e-01 -8.142901799999999746e-01 -9.083417900000000378e-01 -8.430576400000000525e-01 -8.087855200000000355e-01 -8.528809299999999816e-01 -7.566186599999999984e-01 -7.263014599999999543e-01 -6.115710500000000049e-01 -4.676664500000000113e-01 -3.820504900000000204e-01 -1.977975499999999887e-01 -2.238866899999999993e-01 -1.295503100000000019e-01 -1.009964599999999962e-01 -2.079285300000000003e-02 5.965860099999999860e-02 5.198728400000000166e-02 4.030424599999999995e-04 8.103832599999999386e-02 8.176371400000000123e-02 1.233189499999999966e-01 1.911092600000000030e-01 1.797348500000000016e-01 1.685935600000000034e-01 1.994512300000000071e-01 3.036954900000000124e-01 2.478261700000000123e-01 3.091275299999999837e-01 3.267349700000000134e-01 3.970709399999999833e-01 4.119349400000000272e-01 4.050260800000000105e-01 4.943876999999999855e-01 4.988385599999999864e-01 5.311913299999999616e-01 5.144884600000000363e-01 5.735419000000000489e-01 5.428504800000000241e-01 4.930087000000000219e-01 5.859679199999999755e-01 6.307258300000000428e-01 5.155345799999999645e-01 5.019115600000000343e-01 5.062740900000000099e-01 4.311075200000000218e-01 4.583129100000000178e-01 5.027589799999999665e-01 4.563111799999999829e-01 3.983838800000000235e-01 4.500009799999999949e-01 4.271496399999999971e-01 3.606736799999999965e-01 2.994579399999999780e-01 3.851036199999999798e-01 3.543537900000000018e-01 4.076659699999999886e-01 3.716870700000000083e-01 1.787418699999999971e-01 2.389241599999999965e-01 3.419754300000000247e-01 3.155996400000000146e-01 2.771170199999999917e-01 3.658417999999999948e-01 5.095005500000000520e-01 7.115644300000000255e-01 9.101219200000000287e-01 1.123076900000000045e+00 1.322078199999999981e+00 1.539490599999999931e+00 1.956242800000000059e+00 2.107937199999999844e+00 2.030185400000000140e+00 1.983094200000000029e+00 1.720079899999999995e+00 1.451166500000000026e+00 1.242331199999999969e+00 9.095236799999999455e-01 3.130950299999999964e-01 -7.222054699999999605e-02 -2.902203099999999814e-01 -3.430998800000000237e-01 -2.950006900000000098e-01 -3.267287099999999778e-01 -3.426143799999999962e-01 -2.355361699999999892e-01 -2.920522700000000027e-01 -3.186623199999999989e-01 -2.898264799999999974e-01 -1.766286300000000087e-01 -2.846236500000000058e-01 -2.550675600000000265e-01 -1.875069600000000003e-01 -2.500150500000000164e-01 -9.981973700000000560e-02 8.967226799999999942e-02 6.363720000000000487e-01 1.360397400000000090e+00 1.319771999999999945e+00 1.267156500000000019e+00 1.040986399999999978e+00 5.520526000000000044e-01 4.625209499999999863e-01 7.236343299999999923e-01 1.126438499999999898e+00 -1.487581599999999948e+00
2.000000000000000000e+00 -1.732100200000000090e+00 -2.299038299999999868e+00 -2.516311400000000198e+00 -3.371911199999999997e+00 -3.308306200000000086e+00 -3.344124900000000178e+00 -2.740113700000000208e+00 -2.082606199999999852e+00 -1.500686299999999918e+00 -1.430499399999999977e+00 -1.355524100000000010e+00 -1.034650000000000070e+00 -7.542805900000000285e-01 -5.920578499999999966e-01 -5.329324800000000417e-01 -4.731118200000000162e-01 -5.076074499999999601e-01 -4.913912500000000017e-01 -4.907528800000000024e-01 -4.687164400000000120e-01 -4.854176700000000233e-01 -3.761733600000000122e-01 -3.232967400000000269e-01 -3.764818500000000068e-01 -4.273266199999999904e-01 -4.131896700000000089e-01 -3.888292600000000099e-01 -3.894047199999999820e-01 -3.554093300000000233e-01 -4.258572400000000258e-01 -3.821783000000000263e-01 -3.709301999999999877e-01 -3.548557099999999909e-01 -3.469366999999999868e-01 -3.942738700000000263e-01 -4.184713999999999934e-01 -4.088440199999999747e-01 -3.930692800000000209e-01 -4.221481499999999998e-01 -4.420126099999999725e-01 -4.593945700000000021e-01 -4.494865800000000244e-01 -5.543065000000000353e-01 -5.844076299999999557e-01 -4.436451599999999829e-01 -5.582280400000000364e-01 -5.356740399999999624e-01 -4.719173899999999922e-01 -5.903932400000000413e-01 -5.470497699999999908e-01 -5.567747100000000060e-01 -5.060714299999999888e-01 -5.017066399999999815e-01 -5.225258600000000087e-01 -4.810901000000000205e-01 -4.068859400000000015e-01 -3.636443799999999893e-01 -3.467719200000000113e-01 -2.628198999999999952e-01 -2.427978799999999937e-01 -2.075217099999999981e-01 -1.367128900000000036e-01 -6.035622899999999735e-02 -4.686500700000000019e-02 5.575254899999999847e-02 4.492568000000000256e-02 1.094553500000000068e-01 1.392905600000000077e-01 1.696470099999999870e-01 2.711952300000000093e-01 2.582488000000000006e-01 2.966657200000000216e-01 2.892170600000000258e-01 2.808645000000000169e-01 3.252458400000000083e-01 3.035257199999999989e-01 3.837950500000000265e-01 3.837523500000000198e-01 3.685382300000000222e-01 5.034620199999999546e-01 4.701187199999999899e-01 4.387407700000000021e-01 4.309908199999999967e-01 4.549091499999999844e-01 5.478890699999999780e-01 5.224930800000000541e-01 5.664545100000000222e-01 5.972867600000000277e-01 6.130866699999999447e-01 6.212155799999999894e-01 6.057527600000000012e-01 6.673900999999999861e-01 6.278162200000000359e-01 6.819767500000000204e-01 6.980949800000000316e-01 7.673039999999999861e-01 8.860635500000000331e-01 8.593767900000000015e-01 8.697609099999999982e-01 8.626191300000000117e-01 9.443309500000000023e-01 1.042017500000000041e+00 9.750331800000000548e-01 1.002146699999999946e+00 1.024457900000000032e+00 1.043207400000000007e+00 1.098150299999999913e+00 1.054486199999999929e+00 1.043518699999999910e+00 1.093034700000000026e+00 1.117885400000000029e+00 1.025392700000000046e+00 1.124040300000000103e+00 1.146893600000000069e+00 1.129253300000000015e+00 1.183922799999999942e+00 1.208474999999999966e+00 1.122171199999999924e+00 1.054280899999999965e+00 1.075566199999999917e+00 9.475331500000000462e-01 9.505618000000000123e-01 1.120297899999999958e+00 1.181121199999999982e+00 1.125225900000000001e+00 1.026804700000000015e+00 1.068837100000000095e+00 1.114094799999999941e+00 1.180009099999999922e+00 1.447265100000000082e+00 1.538238999999999912e+00 1.466317400000000104e+00 1.094369200000000042e+00 7.754329899999999887e-01 2.634449999999999847e-01 -6.560785900000000448e-02 -1.151682300000000048e+00 -1.613035699999999961e+00 -2.065389900000000001e+00 -1.126148499999999997e+00
1.000000000000000000e+00 1.516116199999999914e+00 -8.829762700000000353e-02 -1.767152400000000068e+00 -2.886156600000000072e+00 -3.647050600000000031e+00 -3.632549700000000215e+00 -2.802024400000000082e+00 -1.962438200000000021e+00 -1.823129800000000023e+00 -1.442576899999999940e+00 -6.961204699999999912e-01 -6.165539100000000383e-01 -7.048507099999999914e-01 -7.428746499999999697e-01 -5.919898099999999497e-01 -6.360499899999999540e-01 -5.855554499999999774e-01 -5.693959100000000051e-01 -5.906052099999999916e-01 -5.875564899999999868e-01 -5.984631400000000045e-01 -5.582303199999999466e-01 -6.607199999999999740e-01 -7.550532100000000302e-01 -7.110967799999999839e-01 -6.884428099999999606e-01 -7.954837200000000053e-01 -7.693721500000000324e-01 -7.922125300000000259e-01 -8.795098199999999977e-01 -8.331428400000000511e-01 -8.583393700000000459e-01 -9.355193899999999507e-01 -1.001731600000000055e+00 -1.040765900000000022e+00 -9.600511600000000145e-01 -9.852058200000000099e-01 -9.775909799999999983e-01 -9.832501700000000344e-01 -9.029739900000000041e-01 -8.112263299999999955e-01 -8.604013600000000039e-01 -8.072269600000000489e-01 -8.315830100000000114e-01 -6.856003600000000198e-01 -6.406645800000000390e-01 -5.486275800000000036e-01 -4.160218900000000053e-01 -4.134031899999999760e-01 -3.447166400000000186e-01 -3.021539400000000097e-01 -2.131947800000000004e-01 -1.910029799999999889e-01 -1.665377799999999964e-01 -1.871074100000000018e-01 -5.323252400000000328e-02 -4.534532000000000146e-02 -9.650306300000000004e-02 1.881514199999999998e-02 2.160406299999999974e-02 8.645523700000000422e-02 5.480988500000000263e-02 5.124463199999999830e-02 5.243506099999999809e-02 9.169742699999999802e-02 2.904369399999999768e-01 2.564788700000000254e-01 1.891907300000000014e-01 2.193032199999999932e-01 3.612107800000000091e-01 3.617642600000000042e-01 3.802193500000000115e-01 4.480869100000000049e-01 3.562588800000000000e-01 4.224119599999999752e-01 4.683256900000000167e-01 4.808972100000000194e-01 4.569250400000000045e-01 4.731746900000000089e-01 5.412188199999999894e-01 5.184397499999999770e-01 4.888410899999999781e-01 3.650294800000000173e-01 4.601755699999999782e-01 4.238619200000000031e-01 4.766535399999999867e-01 4.466102499999999864e-01 4.518897399999999842e-01 3.154680799999999841e-01 3.820991899999999775e-01 3.488867500000000232e-01 3.084250900000000128e-01 3.780529300000000092e-01 4.304943900000000045e-01 3.641355900000000090e-01 3.364790200000000175e-01 3.042736400000000119e-01 3.578869299999999920e-01 3.553710600000000164e-01 4.182046500000000111e-01 7.396402399999999489e-01 1.069321299999999919e+00 1.165137400000000101e+00 1.298407199999999984e+00 1.402264299999999908e+00 1.549262499999999987e+00 1.892235099999999948e+00 2.042797900000000055e+00 2.009354200000000201e+00 1.959651299999999985e+00 1.664932099999999915e+00 1.639320600000000017e+00 1.444622700000000037e+00 1.158859899999999943e+00 7.702089800000000430e-01 2.389398899999999881e-01 1.870772700000000038e-02 1.602839099999999947e-02 -8.426762100000000436e-03 -1.845215899999999923e-02 -2.191140399999999891e-02 1.438809500000000048e-03 -2.832971199999999995e-02 5.118952100000000172e-02 8.668996299999999489e-02 1.043981499999999951e-01 4.878833099999999728e-02 1.215140700000000018e-01 1.445727899999999996e-02 7.630079200000000617e-02 1.942005800000000115e-01 5.038252699999999917e-01 1.045507200000000081e+00 1.177950400000000064e+00 1.518787600000000015e+00 1.831233000000000111e+00 1.878968799999999995e+00 1.678159200000000073e+00 1.234309899999999960e+00 1.573984000000000050e+00
1.000000000000000000e+00 -7.377915099999999837e-01 -3.284541899999999792e+00 -3.994817199999999957e+00 -4.161854700000000129e+00 -3.981827800000000028e+00 -3.648891700000000071e+00 -2.530090700000000137e+00 -1.298728199999999999e+00 -1.100278599999999996e+00 -7.167213799999999635e-01 -1.899135299999999971e-01 -2.612465999999999955e-01 -2.491785199999999867e-01 -2.949456599999999984e-01 -2.990803699999999843e-01 -2.355748799999999865e-01 -2.674227399999999921e-01 -2.730469600000000052e-01 -2.867152199999999929e-01 -2.835877500000000273e-01 -2.155270599999999925e-01 -3.514548299999999958e-01 -3.282054999999999834e-01 -3.431858300000000250e-01 -2.876593800000000201e-01 -4.478685099999999975e-01 -3.219002699999999884e-01 -3.410518000000000161e-01 -4.673520500000000188e-01 -4.429924299999999926e-01 -4.478523999999999838e-01 -4.823769600000000213e-01 -5.176852699999999752e-01 -6.473878699999999764e-01 -5.524362900000000520e-01 -4.917720199999999764e-01 -5.241972000000000298e-01 -5.504946299999999848e-01 -5.669052700000000167e-01 -4.006279799999999947e-01 -4.919989300000000010e-01 -4.364848299999999903e-01 -3.942964400000000258e-01 -4.103241400000000039e-01 -2.073086700000000004e-01 -2.317074100000000025e-01 -5.508637999999999729e-02 -4.818433400000000227e-02 -9.442484800000000567e-02 1.234136499999999997e-02 2.807857100000000009e-02 1.461860799999999995e-02 2.148849099999999845e-02 4.729255300000000106e-02 1.181388200000000055e-01 1.111425600000000014e-01 7.596889299999999567e-02 5.513347100000000334e-02 2.827541999999999903e-02 4.171942399999999801e-02 7.403713500000000391e-02 1.071773599999999993e-01 1.536300700000000075e-01 2.499388800000000022e-01 2.770272699999999921e-01 2.186469000000000051e-01 2.185495100000000024e-01 2.870344699999999860e-01 3.169890899999999734e-01 4.349817000000000267e-01 3.407659800000000239e-01 3.743838999999999917e-01 3.946736900000000214e-01 3.534299399999999980e-01 5.403908200000000495e-01 4.221051699999999740e-01 5.042051199999999511e-01 5.120341099999999868e-01 4.290363600000000055e-01 5.279943999999999749e-01 4.355507900000000210e-01 4.377305599999999908e-01 5.132234500000000255e-01 4.829259900000000272e-01 4.530552700000000099e-01 3.204591099999999915e-01 3.113951300000000200e-01 3.468059800000000137e-01 3.208107700000000229e-01 3.855616399999999833e-01 3.181705400000000017e-01 3.530035100000000203e-01 3.650791800000000031e-01 3.736726200000000109e-01 5.686135500000000231e-01 6.236695599999999562e-01 8.265484400000000509e-01 1.071345800000000015e+00 1.157331499999999957e+00 1.315215299999999976e+00 1.485460100000000061e+00 1.805252800000000102e+00 1.895964299999999936e+00 1.895653199999999927e+00 1.794579900000000006e+00 1.581285100000000110e+00 1.492043400000000020e+00 1.270359199999999911e+00 9.310424899999999448e-01 7.823925900000000544e-01 3.900275300000000112e-01 6.802327800000000646e-02 -1.129986699999999955e-01 -1.478136100000000119e-01 -1.844132800000000127e-01 -2.822826500000000238e-01 -1.288390700000000000e-01 -1.507019400000000064e-01 -1.718780599999999992e-01 -1.151167800000000019e-01 -1.094229300000000016e-01 -1.315878000000000048e-01 -2.091618899999999892e-01 -1.556060300000000063e-01 -9.220435600000000120e-02 -1.188187799999999988e-01 -8.953804799999999509e-02 6.860664399999999441e-02 2.221144100000000121e-01 5.894681800000000083e-01 9.648505400000000343e-01 1.068137499999999962e+00 1.263218699999999917e+00 1.156163199999999946e+00 1.078858099999999931e+00 9.111691600000000335e-01 8.749618599999999802e-01 1.298680800000000080e+00 4.839858899999999742e-01 -2.248308199999999868e+00
1.000000000000000000e+00 -8.915425500000000447e-01 -2.544964699999999969e+00 -3.640400500000000150e+00 -3.829725400000000057e+00 -3.545658500000000046e+00 -3.004577299999999784e+00 -2.166540299999999863e+00 -1.705948299999999973e+00 -1.443222900000000086e+00 -8.409315699999999616e-01 -7.699019900000000360e-01 -7.682285199999999703e-01 -6.892294100000000423e-01 -6.341182499999999944e-01 -6.078654500000000294e-01 -5.920642699999999481e-01 -6.524597100000000260e-01 -7.002352499999999758e-01 -6.343951100000000398e-01 -6.285133499999999707e-01 -7.156562699999999833e-01 -7.547960999999999698e-01 -6.952245400000000020e-01 -7.849693300000000207e-01 -7.576589599999999924e-01 -7.065812599999999888e-01 -9.146614199999999473e-01 -9.400089099999999753e-01 -9.051694000000000129e-01 -8.513268499999999683e-01 -9.721212299999999473e-01 -1.003128900000000101e+00 -1.002192299999999925e+00 -1.024105400000000055e+00 -9.043626900000000246e-01 -9.756420599999999776e-01 -8.943803700000000356e-01 -7.701761499999999483e-01 -7.111777700000000424e-01 -7.622363399999999567e-01 -7.833897199999999561e-01 -6.816284599999999916e-01 -5.986508999999999858e-01 -4.027303799999999989e-01 -2.265483500000000094e-01 -3.015820599999999851e-01 -2.575884199999999846e-01 -2.009924200000000050e-01 -1.021311699999999933e-01 -6.430607000000000684e-02 -1.281629599999999924e-01 -2.402154999999999915e-02 5.474918899999999672e-02 6.440556299999999901e-02 -3.953207899999999775e-02 -1.125688700000000014e-01 -3.425981300000000007e-02 8.705723699999999565e-02 1.226606900000000028e-01 9.640025500000000414e-02 1.436927000000000065e-01 1.240250199999999997e-01 1.973712300000000086e-01 2.571914399999999934e-01 2.500071899999999903e-01 3.366559800000000213e-01 2.358454000000000106e-01 3.267749099999999740e-01 3.814535900000000090e-01 4.331117299999999726e-01 5.198558300000000187e-01 4.979482199999999970e-01 5.652089300000000538e-01 5.846706299999999690e-01 5.299426900000000495e-01 5.656224499999999988e-01 6.287071600000000426e-01 6.886022000000000531e-01 7.240211899999999812e-01 5.121226399999999623e-01 4.566171399999999769e-01 6.333960699999999777e-01 5.258748800000000445e-01 4.999694900000000164e-01 5.388318300000000116e-01 4.783627200000000190e-01 5.319802999999999615e-01 4.584322699999999751e-01 4.506675600000000226e-01 4.646775200000000106e-01 4.677591400000000177e-01 4.102601399999999954e-01 4.418392999999999904e-01 4.137882600000000188e-01 5.174176600000000015e-01 6.481602699999999828e-01 6.108552299999999713e-01 8.317343699999999451e-01 9.799568300000000010e-01 1.027919199999999922e+00 1.151983800000000002e+00 1.230864699999999923e+00 1.537281300000000073e+00 1.612983499999999903e+00 1.649206900000000031e+00 1.571522000000000086e+00 1.470955000000000013e+00 1.357756799999999986e+00 1.278719200000000056e+00 1.066855600000000015e+00 7.929628300000000074e-01 4.582112300000000249e-01 2.942713399999999924e-01 2.484941999999999984e-01 1.240275500000000003e-01 3.755197600000000080e-02 -1.484446199999999924e-02 8.751717900000000050e-02 6.209361199999999942e-02 1.151995499999999978e-01 1.271397499999999958e-01 1.680131600000000017e-02 1.110006500000000063e-01 1.515297100000000119e-01 1.831307199999999968e-01 1.558310499999999987e-01 2.364076999999999984e-01 1.825422399999999945e-01 3.567487699999999928e-01 7.180800899999999487e-01 1.083693199999999912e+00 1.124205700000000085e+00 1.450994099999999953e+00 1.777547299999999941e+00 1.731123100000000026e+00 1.368211899999999925e+00 1.053450100000000056e+00 1.301972899999999989e+00 1.482338600000000062e+00 2.312258199999999986e-01
1.000000000000000000e+00 -9.373457200000000211e-02 -2.766387700000000116e+00 -4.557901099999999595e+00 -4.684730599999999967e+00 -3.096050500000000039e+00 -2.097202300000000186e+00 -1.682635600000000009e+00 -6.598699799999999671e-01 -2.004997299999999871e-01 -1.741699200000000058e-01 -3.751704499999999887e-01 -1.806921800000000078e-01 -4.794423500000000171e-02 -2.497430599999999890e-01 -3.341418400000000233e-01 -3.963475799999999771e-01 -3.541854600000000075e-01 -4.929447399999999924e-01 -3.059668400000000177e-01 -5.294598600000000044e-01 -4.106747000000000036e-01 -4.727812499999999862e-01 -5.680492400000000108e-01 -5.875130200000000524e-01 -8.040861200000000153e-01 -6.535938100000000528e-01 -7.330307600000000035e-01 -9.013478600000000007e-01 -9.872620199999999624e-01 -9.284613900000000530e-01 -1.245979900000000029e+00 -1.181689599999999896e+00 -1.278124800000000061e+00 -1.121732799999999974e+00 -1.094986500000000085e+00 -1.043956600000000012e+00 -1.126644399999999990e+00 -1.080745800000000090e+00 -1.024315499999999934e+00 -1.001168599999999964e+00 -9.758977199999999685e-01 -8.363753499999999619e-01 -6.382302499999999990e-01 -5.161786999999999903e-01 -5.570606399999999958e-01 -3.814682099999999743e-01 -4.574485099999999749e-01 -4.488772500000000054e-01 -2.257514700000000096e-01 -2.085895700000000019e-01 -6.644923699999999434e-02 -8.819283199999999878e-03 1.335751599999999983e-01 1.868202000000000057e-02 -1.335660899999999984e-01 8.489024400000000359e-02 1.957295799999999864e-01 3.908311999999999897e-01 3.904496499999999815e-01 1.600532699999999975e-01 3.189942000000000055e-01 5.492826699999999729e-01 4.085352899999999954e-01 6.747641300000000175e-01 7.860808599999999924e-01 1.037771500000000069e+00 8.816947299999999821e-01 7.082640900000000128e-01 8.606902400000000508e-01 7.750645000000000451e-01 1.044479200000000052e+00 8.238468100000000405e-01 9.482925500000000119e-01 1.041649000000000047e+00 8.363167099999999632e-01 7.787955500000000031e-01 7.678888000000000380e-01 7.761305400000000354e-01 6.461283899999999969e-01 4.037148700000000034e-01 6.116339499999999818e-01 4.879802500000000043e-01 6.072925599999999813e-01 6.077325799999999667e-01 2.139417299999999966e-01 3.560269999999999824e-01 5.167490500000000431e-01 4.486023100000000041e-01 1.546701699999999957e-01 3.917336599999999835e-01 4.249632199999999749e-01 3.524363999999999830e-01 1.877276400000000012e-01 5.280808000000000169e-01 2.598551700000000242e-01 -6.776863099999999585e-02 1.754444500000000018e-01 3.967820300000000078e-01 4.041891899999999760e-01 3.148331999999999797e-01 3.336519299999999855e-01 2.547020300000000237e-01 2.409225399999999906e-01 2.480867200000000106e-01 5.191428300000000551e-01 5.775286400000000375e-01 9.194912899999999611e-01 1.288419299999999934e+00 1.256209600000000037e+00 1.120101599999999920e+00 9.138301500000000077e-01 5.242123400000000544e-01 6.005819300000000416e-01 6.452915299999999466e-01 4.624341399999999935e-01 3.906766400000000194e-02 -5.580146400000000201e-02 -1.443532299999999990e-01 -2.377011900000000066e-01 -2.528356600000000176e-01 -9.508451399999999498e-02 -3.496148800000000167e-01 -1.631349500000000008e-01 1.363404900000000086e-01 -1.446063200000000104e-01 -3.348648200000000075e-01 -4.308525700000000180e-02 7.044963199999999814e-02 1.109436899999999976e-01 3.246598600000000223e-01 7.070817900000000433e-01 1.307184200000000018e+00 1.772413100000000075e+00 1.978757400000000111e+00 2.183366400000000151e+00 1.843581399999999926e+00 1.338037200000000038e+00 1.306138299999999974e+00 1.739201400000000008e+00 2.243860299999999863e-01
2.000000000000000000e+00 1.380900500000000086e+00 1.305051900000000042e+00 5.562838900000000031e-01 -3.827513699999999797e-01 -8.814954099999999793e-01 -1.539657899999999913e+00 -1.969813500000000106e+00 -1.798299300000000045e+00 -1.287375500000000006e+00 -7.407149200000000544e-01 -5.768388899999999930e-01 -5.596878299999999973e-01 -2.071036900000000069e-01 2.417002000000000039e-01 4.258722099999999733e-01 2.933593400000000240e-01 3.003340199999999793e-01 2.764388600000000085e-01 3.673114800000000235e-01 3.563109300000000257e-01 2.814075899999999852e-01 2.830846499999999932e-01 2.765518299999999985e-01 2.486667800000000039e-01 2.465898400000000046e-01 2.685878700000000063e-01 2.816962700000000264e-01 2.302067499999999878e-01 2.401703799999999889e-01 1.525689199999999968e-01 1.807338400000000067e-01 1.336278700000000097e-01 1.445779500000000106e-01 1.595723300000000122e-01 7.882670099999999902e-02 8.065033200000000513e-02 -3.300564100000000223e-02 3.640107000000000065e-02 -3.107219599999999984e-02 3.150368600000000296e-02 -8.676079800000000009e-02 -1.684808700000000048e-01 -1.600129100000000082e-01 -1.863465900000000064e-01 -1.305840500000000071e-01 -2.310670400000000013e-01 -2.739696500000000090e-01 -2.341146100000000008e-01 -2.056214299999999939e-01 -2.182712599999999947e-01 -1.656578200000000112e-01 -2.820188900000000221e-01 -1.629200600000000054e-01 -2.686848299999999856e-01 -2.254736699999999872e-01 -1.290242900000000137e-01 -9.565368200000000376e-02 -6.662554099999999646e-02 -2.250939899999999938e-02 1.054915599999999981e-01 1.044921999999999934e-01 8.802124799999999638e-02 1.822253299999999909e-01 2.214530500000000124e-01 2.364558200000000110e-01 3.087302800000000236e-01 3.451934099999999783e-01 3.376553800000000050e-01 3.599239200000000083e-01 4.352809899999999788e-01 4.043191300000000266e-01 3.633344399999999808e-01 4.084189100000000239e-01 3.834831000000000212e-01 4.300890199999999886e-01 4.692563499999999888e-01 4.162004300000000101e-01 3.859991799999999973e-01 4.242003999999999775e-01 4.084449299999999838e-01 5.114429600000000020e-01 5.254467400000000232e-01 5.547262099999999974e-01 4.992575300000000049e-01 5.712272099999999853e-01 6.035262900000000208e-01 6.014428499999999733e-01 6.301550200000000101e-01 5.872697599999999740e-01 6.237829299999999577e-01 6.686424899999999782e-01 6.446430899999999742e-01 6.403979800000000333e-01 7.234962900000000419e-01 7.020574699999999613e-01 7.293663799999999808e-01 7.463604400000000139e-01 7.438842399999999744e-01 8.144857100000000294e-01 8.069514199999999748e-01 7.221580100000000169e-01 7.603377700000000239e-01 7.233706800000000436e-01 7.365338299999999450e-01 6.739934499999999939e-01 7.420485199999999892e-01 7.577655300000000205e-01 7.061649100000000345e-01 6.795425000000000493e-01 7.110899200000000420e-01 6.842662400000000256e-01 7.083149600000000490e-01 6.866131199999999657e-01 6.252341099999999541e-01 6.441245100000000390e-01 6.558187500000000059e-01 6.427399200000000201e-01 6.180479100000000336e-01 5.964573699999999867e-01 5.992618100000000059e-01 5.138013099999999556e-01 5.217150400000000188e-01 5.091347800000000090e-01 3.288556699999999888e-01 5.192551000000000111e-02 1.178477799999999992e-01 -7.012265700000000490e-02 -3.186357200000000112e-01 -6.447891399999999829e-01 -9.222634800000000244e-01 -1.316122699999999979e+00 -1.589158899999999930e+00 -1.748923299999999958e+00 -2.172911899999999896e+00 -2.615460800000000141e+00 -3.191909900000000189e+00 -3.549034900000000103e+00 -4.122656400000000332e+00 -4.486343599999999654e+00 -4.253437100000000193e+00
1.000000000000000000e+00 -2.357092300000000140e+00 -4.249046599999999785e+00 -4.716976400000000069e+00 -4.277087299999999814e+00 -3.624525499999999845e+00 -2.430441000000000074e+00 -1.137996299999999961e+00 -9.045558299999999496e-01 -2.647567399999999904e-01 2.896952400000000205e-01 2.873567100000000152e-01 3.102039799999999903e-01 3.584434100000000178e-01 4.208367199999999975e-01 4.607751199999999825e-01 3.082783199999999946e-01 1.117444799999999933e-01 1.919320800000000049e-01 1.703649899999999939e-01 2.932934999999999848e-01 4.332785700000000260e-03 -2.152877300000000105e-01 3.249678699999999920e-02 1.546299999999999897e-01 -1.132872000000000046e-02 -1.924122000000000055e-01 -2.925372700000000159e-01 -3.589442400000000255e-01 -4.742603300000000077e-01 -4.631499199999999927e-01 -6.224152800000000152e-01 -6.251866799999999946e-01 -5.611491499999999855e-01 -7.126574599999999649e-01 -6.844363300000000372e-01 -6.435923099999999453e-01 -6.909580699999999798e-01 -7.970538900000000426e-01 -5.903563099999999952e-01 -4.213888700000000265e-01 -5.297173200000000470e-01 -5.012117000000000377e-01 -3.525585299999999811e-01 -2.240916500000000033e-01 7.750471500000000180e-02 2.044786899999999907e-01 6.952012400000000258e-02 2.502616799999999864e-01 3.660856200000000005e-01 3.160817300000000052e-01 2.848623499999999864e-01 2.795913099999999818e-01 2.599797200000000252e-01 4.034512900000000180e-01 4.432637200000000277e-01 2.833964400000000272e-01 2.704646199999999889e-01 4.188965000000000050e-01 2.831093800000000216e-01 2.797603200000000068e-01 3.664484700000000261e-01 2.072450000000000125e-01 5.870114100000000112e-01 2.883507900000000235e-01 1.891412299999999935e-01 3.787383100000000224e-01 4.345275800000000244e-01 6.990985199999999455e-01 6.282013400000000525e-01 3.428465399999999774e-01 3.819159400000000093e-01 4.839827999999999908e-01 6.182298999999999989e-01 7.510599799999999604e-01 6.714382599999999535e-01 7.036161600000000460e-01 7.263517000000000445e-01 3.732999300000000020e-01 5.031438900000000380e-01 6.313265099999999519e-01 5.560641899999999582e-01 5.429754900000000051e-01 3.749511700000000003e-01 3.611138099999999795e-01 4.403373700000000057e-01 4.696237899999999854e-01 4.492015599999999997e-01 4.378491199999999806e-01 2.954083699999999757e-01 1.080548699999999973e-01 2.776612800000000103e-01 3.765439099999999817e-01 2.153421100000000032e-01 1.271331199999999884e-01 9.559538400000000546e-02 5.138434400000000402e-01 6.534732500000000055e-01 4.414505200000000129e-01 8.805609199999999692e-01 1.116259200000000007e+00 9.322814200000000273e-01 1.143467299999999964e+00 1.657346599999999892e+00 1.824339699999999898e+00 1.760685800000000079e+00 1.795922999999999936e+00 1.766410400000000047e+00 1.525840599999999991e+00 1.060029899999999969e+00 8.755120899999999651e-01 8.610485300000000342e-01 8.406952099999999428e-02 -2.993592099999999867e-01 -4.894838200000000139e-01 -5.646281199999999556e-01 -7.692940499999999515e-01 -8.658942099999999975e-01 -6.631064100000000350e-01 -5.630693199999999843e-01 -5.937223299999999648e-01 -8.662644099999999847e-01 -8.117270199999999658e-01 -7.556219600000000369e-01 -5.398119099999999504e-01 -9.381905900000000464e-01 -1.057394299999999898e+00 -8.944876600000000177e-01 -6.987010099999999557e-01 -4.647981299999999760e-01 -2.570274300000000012e-01 3.552772799999999731e-01 5.007880399999999899e-01 5.034803899999999999e-01 8.698450100000000296e-01 7.142745900000000425e-01 7.454107100000000319e-01 5.951931099999999697e-01 2.046213299999999902e-01 3.345679799999999871e-01 -6.751688099999999526e-01
2.000000000000000000e+00 1.011818399999999896e+00 4.649975900000000162e-02 -8.094170400000000321e-01 -1.485835199999999912e+00 -2.090354399999999835e+00 -2.701776399999999967e+00 -3.120634499999999978e+00 -3.188690199999999919e+00 -2.948921900000000207e+00 -2.475291400000000142e+00 -1.875739899999999905e+00 -1.279548799999999931e+00 -8.291019699999999659e-01 -6.189809099999999953e-01 -5.342137300000000533e-01 -3.391913899999999815e-01 -8.529781499999999905e-03 3.087716200000000244e-01 4.844660100000000025e-01 4.765233500000000122e-01 4.328718200000000182e-01 4.520654199999999956e-01 4.564277199999999812e-01 4.735310500000000089e-01 5.275374200000000346e-01 5.196679600000000399e-01 5.143547600000000219e-01 5.696671500000000110e-01 5.072730699999999926e-01 4.320295100000000055e-01 5.154328299999999530e-01 5.359114699999999454e-01 5.543994100000000369e-01 5.792251299999999770e-01 4.575259999999999883e-01 4.652797300000000025e-01 5.184253100000000281e-01 4.745902499999999913e-01 5.282908400000000393e-01 5.020163300000000106e-01 4.525592999999999977e-01 4.964421900000000054e-01 4.519201400000000257e-01 4.094330800000000048e-01 3.708139200000000191e-01 3.302132999999999874e-01 3.409826200000000140e-01 2.519583300000000081e-01 2.107435099999999950e-01 2.734338499999999783e-01 2.397229800000000022e-01 2.028949899999999973e-01 2.116615599999999986e-01 2.047369300000000114e-01 1.747796500000000086e-01 1.014459000000000055e-01 9.693772800000000078e-02 1.507528900000000005e-01 9.491711199999999793e-02 5.331459400000000334e-03 2.895073600000000122e-02 9.475851999999999886e-02 8.590405900000000483e-02 3.447567700000000318e-02 1.894087499999999938e-02 5.716465800000000014e-02 1.212115799999999993e-01 1.529200599999999965e-01 1.093418300000000010e-01 4.789018899999999967e-02 6.129727699999999724e-02 1.290988999999999887e-01 1.615292600000000078e-01 1.698056799999999866e-01 1.860795100000000035e-01 2.011583600000000083e-01 2.330853800000000087e-01 3.004346800000000095e-01 4.006820600000000065e-01 5.008907500000000512e-01 5.381990800000000519e-01 5.388582499999999831e-01 5.619724699999999462e-01 6.097065999999999875e-01 6.451817699999999878e-01 6.283779800000000026e-01 6.235949699999999707e-01 6.735023799999999561e-01 7.042174799999999513e-01 6.910256599999999860e-01 6.251478000000000312e-01 5.758508100000000463e-01 6.431505899999999665e-01 7.062900300000000131e-01 7.011392199999999519e-01 7.199811299999999692e-01 7.330283100000000163e-01 7.036901899999999932e-01 6.776491000000000042e-01 6.803095300000000512e-01 7.098496800000000384e-01 7.509718199999999566e-01 7.969395200000000123e-01 7.854609799999999753e-01 7.554494299999999773e-01 8.014505899999999627e-01 7.869257899999999584e-01 7.222254000000000174e-01 7.433661499999999478e-01 7.028052999999999662e-01 6.119029200000000168e-01 5.531595900000000343e-01 4.436124100000000126e-01 3.689397899999999897e-01 3.869395500000000210e-01 4.140787799999999796e-01 3.764135299999999962e-01 2.553371199999999730e-01 1.995204999999999895e-01 2.042457199999999917e-01 1.394575799999999977e-01 1.106366500000000030e-01 1.973032399999999909e-01 2.434710900000000011e-01 6.804515999999999343e-02 -2.963293599999999861e-01 -6.625556700000000410e-01 -1.069164900000000085e+00 -1.645418100000000106e+00 -2.227384199999999925e+00 -2.677569800000000111e+00 -3.038205200000000161e+00 -3.315775599999999823e+00 -3.225974799999999920e+00 -2.559028399999999870e+00 -1.687732900000000091e+00 -6.234793699999999772e-01 3.277614500000000097e-01 4.753800000000000248e-01 9.104188600000000520e-01
1.000000000000000000e+00 6.986882199999999710e-01 -9.942811299999999575e-01 -2.868739399999999939e+00 -3.690300600000000042e+00 -4.941391499999999937e+00 -4.502728900000000145e+00 -3.075503599999999782e+00 -1.823782699999999979e+00 -1.660950099999999985e+00 -6.964492300000000302e-01 1.385822499999999902e-01 9.886536399999999725e-02 1.651650500000000077e-01 1.316421899999999923e-01 1.845809900000000003e-01 9.089502700000000324e-02 1.501467700000000127e-01 1.317378200000000020e-02 1.058304899999999993e-01 7.805193800000000126e-02 5.635001199999999794e-02 6.305496100000000659e-02 -6.378846700000000147e-02 -7.227872999999999937e-02 -1.203320300000000065e-01 -6.938779900000000000e-02 -2.722011999999999765e-01 -3.060323600000000033e-01 -3.553580100000000019e-01 -3.204048899999999978e-01 -4.701039499999999927e-01 -5.267699000000000131e-01 -6.319259799999999982e-01 -7.846464399999999451e-01 -6.678444599999999731e-01 -7.755374000000000434e-01 -6.931482799999999500e-01 -8.161399599999999976e-01 -7.933423200000000453e-01 -7.311963400000000002e-01 -7.148314799999999636e-01 -5.732751099999999767e-01 -5.526504700000000048e-01 -4.452623800000000132e-01 -3.533339300000000183e-01 -1.378565700000000116e-01 -5.648391999999999996e-02 4.414440900000000251e-02 6.425121500000000041e-02 1.430157599999999918e-01 2.032018700000000067e-01 2.035453799999999980e-01 2.218620599999999998e-01 2.761133900000000141e-01 2.669886200000000098e-01 3.089000700000000266e-01 3.408626799999999735e-01 3.232327400000000184e-01 2.950642399999999776e-01 3.139974700000000007e-01 3.339173899999999806e-01 3.971253699999999776e-01 3.035705200000000104e-01 3.779912599999999956e-01 3.013854400000000044e-01 3.378969700000000187e-01 4.843974899999999861e-01 4.232080899999999812e-01 5.667287100000000244e-01 6.211988299999999796e-01 6.729399499999999534e-01 6.036389899999999864e-01 8.148071399999999853e-01 7.982287599999999816e-01 7.305275799999999542e-01 7.897104900000000427e-01 7.356015900000000274e-01 8.485162699999999614e-01 7.786868700000000310e-01 8.437453900000000395e-01 7.235665700000000200e-01 6.573545100000000030e-01 7.587936699999999757e-01 6.761365900000000373e-01 4.278422499999999795e-01 5.513019999999999587e-01 6.979061300000000134e-01 4.119282200000000116e-01 4.347267200000000109e-01 3.416737200000000141e-01 3.121132500000000087e-01 3.587854500000000058e-01 2.134651899999999991e-01 2.702987399999999818e-01 1.686671499999999879e-01 2.237031499999999895e-01 1.623405800000000121e-01 1.798639300000000052e-01 1.021646199999999977e-01 1.690008500000000080e-01 2.898332699999999762e-01 6.196146000000000154e-01 1.112876200000000093e+00 1.120507499999999990e+00 1.227858200000000011e+00 1.311462499999999975e+00 1.814589599999999914e+00 1.954718200000000072e+00 1.891198399999999946e+00 1.791980899999999988e+00 1.437360799999999994e+00 1.292268299999999925e+00 1.106245600000000051e+00 7.712495499999999504e-01 4.196714699999999909e-01 -1.709475199999999917e-01 -6.599111100000000230e-01 -6.575996100000000011e-01 -7.744574400000000525e-01 -5.655371799999999727e-01 -5.800430899999999834e-01 -7.625875500000000029e-01 -5.558029799999999465e-01 -7.450512500000000538e-01 -7.772753300000000420e-01 -6.983329299999999629e-01 -7.049849400000000044e-01 -6.559587399999999846e-01 -7.175484199999999646e-01 -6.161050900000000219e-01 -6.522965800000000147e-01 -3.111760700000000268e-01 4.241603800000000035e-01 7.043048400000000431e-01 6.283930399999999583e-01 8.311185199999999718e-01 7.228886599999999607e-01 5.538944000000000090e-01 -2.735810599999999870e-01 -1.744018800000000091e-01
1.000000000000000000e+00 1.758019100000000057e-01 -1.796693700000000060e+00 -3.899388500000000146e+00 -4.672868399999999589e+00 -4.129218800000000300e+00 -2.900085699999999989e+00 -1.849615800000000032e+00 -1.606273899999999921e+00 -1.021344400000000041e+00 -3.012400499999999814e-01 -3.612449999999999828e-01 -3.539860100000000176e-01 -3.232029499999999889e-01 -2.615446599999999844e-01 -2.239360400000000029e-01 -2.649566500000000158e-01 -2.744074599999999919e-01 -3.066832299999999734e-01 -3.601230699999999896e-01 -2.814601099999999856e-01 -4.361473299999999997e-01 -4.506754600000000277e-01 -4.701023100000000232e-01 -3.792828699999999942e-01 -4.997602700000000064e-01 -5.082169800000000404e-01 -5.754000099999999618e-01 -6.945317399999999530e-01 -6.961725399999999508e-01 -7.303194699999999706e-01 -8.516700400000000171e-01 -8.896078800000000175e-01 -8.632094999999999629e-01 -9.246566299999999794e-01 -1.020731000000000055e+00 -8.970878500000000200e-01 -9.601352300000000062e-01 -9.204425499999999705e-01 -8.594830399999999759e-01 -7.888651300000000255e-01 -6.326817399999999925e-01 -5.922357000000000316e-01 -3.792435100000000059e-01 -2.707761799999999774e-01 -2.945053300000000096e-01 -1.350410700000000130e-01 -1.094651799999999953e-01 1.133669200000000064e-02 6.428751700000000235e-02 -1.067492900000000054e-03 1.231730899999999990e-01 1.028098600000000029e-01 1.628332200000000007e-01 2.059928000000000037e-01 9.058496900000000129e-02 1.504839199999999932e-01 1.335241299999999909e-01 2.598128399999999893e-01 2.303736899999999921e-01 1.958564299999999980e-01 3.752431999999999990e-01 2.916741299999999759e-01 3.489688499999999971e-01 3.472234000000000154e-01 4.811567099999999875e-01 5.218217800000000128e-01 4.620195699999999905e-01 6.149316900000000308e-01 5.117867900000000470e-01 5.781013699999999478e-01 5.876603400000000033e-01 6.390707199999999810e-01 6.320496399999999682e-01 6.094494999999999774e-01 6.910306999999999977e-01 6.265447499999999836e-01 6.951001399999999775e-01 6.548705200000000115e-01 6.182269999999999710e-01 5.855797099999999755e-01 5.594159699999999846e-01 6.508713499999999597e-01 4.584914399999999723e-01 4.925747200000000214e-01 5.556410800000000094e-01 5.334619800000000023e-01 4.815123499999999779e-01 4.687209299999999801e-01 4.670022999999999813e-01 3.920771499999999854e-01 3.225831100000000062e-01 5.265634399999999937e-01 3.847052000000000249e-01 4.317682099999999856e-01 4.887710699999999742e-01 5.204707100000000031e-01 7.212108999999999881e-01 8.410666599999999660e-01 1.083545999999999898e+00 1.134063899999999903e+00 1.386585500000000026e+00 1.565529699999999913e+00 1.832540300000000011e+00 1.820216700000000021e+00 1.767401299999999953e+00 1.670329900000000034e+00 1.477539500000000006e+00 1.272288599999999992e+00 9.643591999999999720e-01 6.402052000000000298e-01 2.764222000000000068e-01 -1.001100899999999953e-02 -2.829662199999999905e-01 -4.077739599999999909e-01 -3.868178500000000186e-01 -3.406837099999999730e-01 -5.067700299999999825e-01 -4.995224300000000173e-01 -5.032058499999999546e-01 -4.719699399999999767e-01 -4.331196099999999882e-01 -4.659200900000000090e-01 -5.421933399999999681e-01 -5.304322700000000390e-01 -4.413852699999999962e-01 -4.410759000000000207e-01 -3.850149500000000224e-01 -1.971627999999999992e-01 2.526461999999999875e-01 8.647064399999999651e-01 8.802688699999999811e-01 7.375680599999999698e-01 1.015660199999999902e+00 1.104447500000000026e+00 9.844691300000000256e-01 9.809219900000000214e-01 1.500987800000000094e+00 1.670773099999999900e+00 1.023776999999999937e+00 -1.117730799999999913e+00
1.000000000000000000e+00 -3.949018200000000145e-01 -2.137352799999999942e+00 -3.436144999999999783e+00 -4.407058900000000001e+00 -4.285005800000000420e+00 -3.509086100000000208e+00 -2.272648999999999919e+00 -1.764472599999999947e+00 -1.547295000000000087e+00 -8.867441000000000351e-01 -4.954614600000000202e-01 -5.324235200000000390e-01 -4.971673200000000237e-01 -5.191966399999999870e-01 -4.690004099999999787e-01 -4.386785000000000267e-01 -4.850360899999999753e-01 -4.307832400000000117e-01 -3.998048799999999736e-01 -4.077219100000000207e-01 -5.112547600000000303e-01 -5.266852600000000439e-01 -5.133147500000000418e-01 -6.702357700000000085e-01 -6.085600199999999793e-01 -6.320242299999999647e-01 -6.559321200000000074e-01 -6.256625099999999495e-01 -7.726093699999999620e-01 -7.601497200000000287e-01 -8.362824599999999498e-01 -9.507697299999999796e-01 -9.503240899999999547e-01 -1.014575900000000086e+00 -9.404174199999999484e-01 -1.000404999999999989e+00 -1.026241699999999923e+00 -9.178537100000000448e-01 -8.014917599999999975e-01 -8.034910600000000347e-01 -7.270668700000000317e-01 -6.324696400000000551e-01 -5.116177699999999717e-01 -4.215262000000000175e-01 -2.442787200000000047e-01 -1.868976800000000105e-01 -5.663641299999999656e-02 3.765937400000000240e-02 -8.604371700000000220e-03 -2.226351799999999950e-02 3.138506600000000313e-02 9.484217000000000342e-02 2.184849200000000061e-02 3.341830400000000284e-02 1.849423600000000001e-01 1.541596000000000077e-01 5.596187500000000120e-02 9.092040899999999370e-02 2.031735699999999978e-01 1.330628600000000050e-01 1.183627000000000012e-01 3.000480400000000158e-01 3.001283900000000227e-01 2.298504399999999892e-01 2.942213000000000189e-01 2.798396799999999796e-01 3.294045500000000182e-01 3.848381499999999900e-01 5.105800000000000338e-01 3.944551099999999977e-01 4.123101200000000022e-01 5.280821799999999566e-01 5.216036600000000245e-01 5.433130299999999746e-01 5.273776500000000311e-01 4.813981399999999744e-01 6.110260299999999978e-01 5.463777499999999954e-01 5.351510999999999907e-01 5.401713299999999496e-01 5.414030899999999757e-01 4.995581399999999839e-01 5.486316199999999865e-01 5.489289200000000424e-01 5.054281999999999941e-01 4.984297400000000100e-01 4.491621599999999770e-01 5.159168600000000326e-01 5.008655199999999530e-01 4.676424499999999873e-01 4.607590799999999875e-01 4.643600299999999792e-01 4.823098200000000002e-01 4.779558199999999757e-01 5.719927799999999785e-01 5.799385200000000129e-01 7.230195900000000453e-01 9.197495100000000479e-01 1.057609699999999986e+00 1.122643999999999975e+00 1.200125499999999956e+00 1.391193300000000077e+00 1.523990500000000026e+00 1.679332100000000105e+00 1.659161300000000061e+00 1.601311900000000010e+00 1.522029499999999924e+00 1.415195200000000098e+00 1.182836500000000068e+00 1.000062199999999901e+00 7.821449700000000504e-01 4.620581899999999798e-01 1.490222900000000017e-01 6.341820800000000369e-02 -9.172777999999999488e-03 6.608478099999999696e-03 1.441319400000000070e-02 -2.932346599999999942e-02 7.264971100000000570e-02 -2.232845699999999947e-02 -6.123866900000000252e-03 -1.992960400000000007e-02 -1.196830599999999974e-02 -3.833242199999999794e-03 -1.463425999999999963e-02 2.965132900000000057e-02 -3.194391600000000275e-02 1.057920499999999986e-01 4.279867399999999766e-01 9.809058400000000288e-01 1.172762899999999942e+00 1.026685300000000023e+00 1.247534499999999991e+00 1.259106899999999918e+00 1.065477900000000089e+00 7.320106400000000457e-01 6.883917800000000087e-01 1.064501600000000048e+00 1.122859000000000052e+00 -2.205531400000000086e-01
1.000000000000000000e+00 -5.470619799999999477e-01 -3.096131399999999978e+00 -4.269247799999999593e+00 -4.347531000000000034e+00 -4.111695000000000100e+00 -3.757245699999999911e+00 -2.792189800000000055e+00 -1.490608600000000061e+00 -1.175777199999999967e+00 -8.893772599999999473e-01 -2.717333399999999899e-01 -1.597840199999999988e-01 -1.813777299999999870e-01 -2.285707100000000103e-01 -1.448001800000000006e-01 -1.152792400000000050e-01 -2.169335300000000133e-01 -1.834769800000000117e-01 -1.771778800000000098e-01 -1.711073100000000125e-01 -2.112897999999999998e-01 -2.841749700000000267e-01 -3.088768900000000150e-01 -2.287182399999999893e-01 -2.411185600000000095e-01 -3.375621400000000105e-01 -3.322774700000000192e-01 -3.984871500000000122e-01 -3.306782300000000174e-01 -4.131188599999999767e-01 -3.690985900000000042e-01 -4.403570800000000118e-01 -4.834519999999999929e-01 -5.758759300000000358e-01 -5.448635499999999743e-01 -5.673258399999999702e-01 -5.764867000000000186e-01 -5.739863499999999785e-01 -5.953829200000000377e-01 -5.654008299999999654e-01 -5.605874899999999661e-01 -4.406914200000000004e-01 -3.752427999999999875e-01 -3.059489300000000078e-01 -1.746601799999999982e-01 -2.166869499999999893e-01 -1.275484699999999971e-01 -6.310167499999999596e-02 -8.714072500000000221e-02 -9.442428599999999617e-02 -2.292629700000000173e-02 3.059713999999999837e-02 -1.622508699999999915e-02 -7.044560699999999863e-03 8.366839900000000441e-02 6.281274300000000421e-02 8.510905400000000343e-02 9.886408100000000643e-02 -2.749173099999999842e-02 6.506582099999999591e-02 1.255661000000000138e-01 9.848031599999999830e-02 1.173193800000000009e-01 1.362320499999999934e-01 6.890258900000000020e-02 1.255428000000000099e-01 2.589190000000000103e-01 2.190167699999999995e-01 2.191201000000000121e-01 4.074747400000000019e-01 2.767194800000000177e-01 4.105781199999999909e-01 3.524699199999999921e-01 3.727072699999999794e-01 4.810607900000000159e-01 3.504057999999999895e-01 4.058979500000000074e-01 3.646703099999999975e-01 4.724728699999999892e-01 4.851675200000000188e-01 3.360235899999999831e-01 5.240088899999999494e-01 4.411245899999999831e-01 3.995066899999999976e-01 2.760695599999999916e-01 3.085261400000000043e-01 3.640788500000000094e-01 3.181759800000000249e-01 3.221648100000000237e-01 3.267427900000000052e-01 3.670332800000000173e-01 3.602995600000000187e-01 4.095361299999999982e-01 4.054526399999999753e-01 4.948119400000000057e-01 5.098128899999999630e-01 7.809918500000000430e-01 9.758007600000000448e-01 1.076691599999999971e+00 1.105986399999999925e+00 1.341541000000000095e+00 1.584702199999999950e+00 1.780568300000000104e+00 1.700965099999999897e+00 1.647106399999999971e+00 1.587563800000000080e+00 1.477729700000000035e+00 1.284017200000000081e+00 1.127037999999999984e+00 9.042693400000000326e-01 5.522418300000000446e-01 2.128190100000000029e-01 -1.005159100000000000e-01 -6.716374299999999797e-02 -6.531998099999999918e-02 -1.180584799999999934e-01 -1.656960000000000099e-01 -2.037089699999999892e-01 -1.252719499999999930e-01 -1.328537999999999941e-01 -1.997742299999999971e-01 -5.437121999999999788e-02 -1.586929899999999991e-02 5.519478500000000142e-03 2.376379600000000022e-02 3.926304700000000231e-02 8.891578499999999718e-02 3.719666099999999892e-02 2.053982500000000044e-01 7.433857600000000065e-01 1.106160000000000032e+00 1.150057700000000072e+00 1.370127799999999896e+00 1.371792499999999970e+00 1.227565699999999982e+00 8.788063000000000402e-01 7.588918199999999947e-01 8.287432200000000027e-01 6.717023100000000246e-01 -1.511568900000000104e+00
1.000000000000000000e+00 6.070376400000000033e-02 -1.955188900000000007e+00 -3.450205599999999873e+00 -4.580835999999999686e+00 -4.248523500000000119e+00 -3.185513600000000167e+00 -1.852671699999999921e+00 -1.617560899999999968e+00 -1.009324899999999969e+00 -3.441955999999999904e-01 -1.632828299999999899e-01 -1.978395699999999924e-01 -3.049967699999999726e-01 -2.336959399999999909e-01 -1.795783499999999977e-01 -2.532448299999999763e-01 -3.273646900000000137e-01 -3.287656099999999859e-01 -2.530537900000000007e-01 -3.049749700000000119e-01 -3.150163799999999847e-01 -4.209952800000000273e-01 -4.554235099999999759e-01 -3.261212299999999842e-01 -5.227411100000000088e-01 -5.785004900000000339e-01 -6.479118499999999559e-01 -6.945579100000000006e-01 -7.071696400000000438e-01 -8.461558099999999527e-01 -8.793474500000000305e-01 -7.909374799999999706e-01 -8.665520500000000181e-01 -9.994084899999999827e-01 -1.003051200000000032e+00 -1.020418199999999942e+00 -1.016957899999999970e+00 -9.463134100000000215e-01 -8.134889699999999779e-01 -7.076679399999999953e-01 -6.692692000000000085e-01 -5.614851199999999487e-01 -3.280771299999999946e-01 -4.827043999999999779e-01 -3.085974499999999954e-01 -1.539251700000000000e-01 -1.355758200000000135e-01 -1.277445100000000056e-01 7.568271999999999500e-02 2.948187199999999925e-02 -2.273853199999999880e-02 -4.977953000000000239e-02 3.121853399999999917e-02 3.879757799999999923e-02 6.662894699999999393e-02 1.470867999999999898e-01 9.214650900000000144e-02 2.857435999999999865e-01 1.917703299999999889e-01 1.432719899999999880e-01 2.399161400000000000e-01 1.693041700000000038e-01 2.977279400000000242e-01 3.442605200000000143e-01 3.399004999999999943e-01 3.503454599999999974e-01 4.821625500000000231e-01 5.150140399999999508e-01 4.618846300000000182e-01 5.274406200000000267e-01 5.227876700000000376e-01 5.379918700000000387e-01 5.704152000000000111e-01 5.577490600000000187e-01 5.986561599999999927e-01 5.869360200000000027e-01 5.956575600000000303e-01 6.522677799999999637e-01 5.110881900000000533e-01 5.181157899999999650e-01 4.395464499999999775e-01 3.995501300000000033e-01 4.199965800000000082e-01 4.042076600000000242e-01 4.363657200000000125e-01 3.465166000000000079e-01 4.540491700000000019e-01 4.259161599999999881e-01 3.475023700000000049e-01 3.625923999999999814e-01 2.589338500000000209e-01 2.750930300000000162e-01 3.392822400000000127e-01 2.444821000000000077e-01 2.710887799999999737e-01 4.484439100000000011e-01 5.775580599999999842e-01 7.307654999999999568e-01 9.519084599999999563e-01 1.146858799999999956e+00 1.390039800000000048e+00 1.635774400000000073e+00 1.872565199999999930e+00 2.049142400000000031e+00 1.884539600000000092e+00 1.748682499999999918e+00 1.594986000000000015e+00 1.493334500000000009e+00 1.264027400000000023e+00 1.027884400000000031e+00 6.288798500000000180e-01 2.396308299999999891e-01 -4.663682499999999981e-02 -2.394635300000000078e-01 -2.704726599999999759e-01 -3.503780799999999807e-01 -4.195351500000000233e-01 -3.150248500000000229e-01 -3.521862299999999890e-01 -3.488781899999999769e-01 -3.116905300000000212e-01 -3.921462700000000190e-01 -3.503825099999999804e-01 -2.578576599999999885e-01 -2.591280899999999776e-01 -3.338677299999999737e-01 -1.234403200000000062e-01 -6.751634300000000644e-02 6.136759199999999859e-02 7.371943899999999772e-01 1.326829299999999989e+00 1.275430800000000087e+00 1.384447299999999936e+00 1.584541100000000036e+00 1.433477399999999902e+00 7.438295400000000113e-01 7.423254200000000136e-01 1.103723800000000033e+00 8.085706299999999569e-01 -1.225980499999999918e+00
1.000000000000000000e+00 -9.247024200000000249e-01 -3.435551100000000080e+00 -4.255069599999999674e+00 -4.592860700000000129e+00 -3.757135200000000008e+00 -2.628617399999999993e+00 -2.067178999999999878e+00 -1.810548999999999964e+00 -9.304482899999999557e-01 -3.990141200000000277e-01 -4.836441000000000212e-01 -4.207764199999999843e-01 -3.520260599999999740e-01 -3.645799499999999860e-01 -3.922921699999999956e-01 -3.823629800000000190e-01 -2.801012199999999841e-01 -3.587784800000000107e-01 -3.802878599999999776e-01 -4.490278699999999956e-01 -4.299612700000000065e-01 -4.345588699999999860e-01 -4.459036399999999900e-01 -4.670197300000000218e-01 -5.104262999999999995e-01 -4.869977500000000070e-01 -6.372893200000000480e-01 -5.141498899999999983e-01 -6.198891499999999999e-01 -7.779874300000000353e-01 -7.414319200000000221e-01 -7.989953600000000433e-01 -7.502259599999999695e-01 -8.333651699999999884e-01 -8.577842199999999862e-01 -8.821126000000000245e-01 -9.100800000000000001e-01 -7.977528900000000478e-01 -7.781330699999999823e-01 -6.628362399999999655e-01 -6.402665600000000401e-01 -5.617091199999999507e-01 -4.178464900000000148e-01 -3.490773899999999874e-01 -2.442272000000000054e-01 -2.266615200000000052e-01 -1.903573199999999965e-01 -1.809653200000000128e-01 -1.325362499999999978e-02 -3.605303700000000305e-02 -2.776728399999999972e-02 7.818390399999999851e-02 1.122425600000000051e-01 1.550152999999999948e-01 4.560835500000000320e-02 -1.962455800000000028e-02 1.340738099999999877e-01 1.110321999999999976e-01 7.954434100000000452e-02 2.223143999999999953e-01 1.972138300000000066e-01 1.850282600000000000e-01 2.476209400000000116e-01 2.347403499999999865e-01 3.004045699999999819e-01 2.799602700000000111e-01 3.284827599999999848e-01 4.277266100000000071e-01 3.500117200000000262e-01 3.441289699999999785e-01 4.183560700000000243e-01 4.274539399999999767e-01 4.326397599999999843e-01 5.025907800000000147e-01 5.862337300000000084e-01 5.796639999999999571e-01 6.045528599999999697e-01 6.524919099999999528e-01 5.906096199999999463e-01 5.976297499999999596e-01 5.634457899999999464e-01 5.325557899999999734e-01 5.542813500000000060e-01 4.963926499999999908e-01 4.733464700000000192e-01 4.820714700000000019e-01 4.700458699999999768e-01 4.718723699999999854e-01 4.307161899999999988e-01 4.543341799999999764e-01 3.845945399999999847e-01 3.610303200000000157e-01 4.863531200000000276e-01 4.632644799999999785e-01 3.714482299999999904e-01 3.712802099999999994e-01 4.795696199999999743e-01 5.424208499999999544e-01 7.341124399999999772e-01 9.490948200000000057e-01 1.047596100000000030e+00 1.210093400000000097e+00 1.337119200000000063e+00 1.670609400000000022e+00 1.876980400000000104e+00 1.929504399999999897e+00 1.993231100000000033e+00 1.689424700000000001e+00 1.631551799999999997e+00 1.456867499999999982e+00 1.267585399999999973e+00 8.528029700000000490e-01 6.087514299999999823e-01 2.058259000000000061e-01 -2.468476799999999929e-02 -3.634631199999999868e-02 -8.898074499999999998e-02 -1.570600000000000052e-01 -7.674924900000000549e-02 -8.415562899999999569e-02 -9.642160900000000534e-02 -1.102507600000000032e-01 -7.839186200000000659e-02 -1.839851100000000073e-01 -8.103890699999999336e-02 -6.277372999999999981e-02 -4.768822600000000023e-02 -3.477879899999999913e-02 5.831578400000000245e-02 1.103424199999999966e-01 4.747483499999999856e-01 1.124691600000000014e+00 1.109564599999999901e+00 9.674086899999999600e-01 8.304345199999999538e-01 4.991717399999999749e-01 3.958631499999999970e-01 3.040922300000000189e-01 1.105777500000000080e+00 1.016879099999999925e+00
3.000000000000000000e+00 -2.893251700000000204e-01 -3.044823000000000057e+00 -3.793701399999999779e+00 -3.496313900000000086e+00 -2.720256599999999914e+00 -1.584210899999999977e+00 -1.203403000000000000e+00 -7.529002700000000381e-01 -1.118523299999999929e-02 -7.714930000000000399e-02 -7.812890200000000007e-02 -6.177772200000000019e-02 -7.350785699999999590e-02 -3.370684499999999917e-02 -1.674982599999999891e-02 -1.245708199999999988e-01 -1.188024500000000039e-01 -1.525859800000000099e-01 -1.768499299999999885e-01 -2.106284200000000106e-01 -1.732337399999999972e-01 -2.824561099999999825e-01 -2.708451499999999790e-01 -3.433173099999999867e-01 -3.265932999999999753e-01 -2.959194199999999886e-01 -3.440326799999999796e-01 -4.683318000000000203e-01 -4.874220000000000219e-01 -4.686016399999999860e-01 -4.061181899999999900e-01 -5.695793500000000398e-01 -6.136367999999999823e-01 -5.985816999999999943e-01 -6.026356200000000385e-01 -5.549258200000000141e-01 -4.797626400000000180e-01 -6.037070700000000123e-01 -4.200606399999999852e-01 -3.643609400000000220e-01 -2.617684399999999911e-01 -1.089070699999999947e-01 8.312367199999999567e-02 1.064180900000000068e-01 1.309130099999999963e-01 2.363836300000000112e-01 1.963407799999999925e-01 2.247025800000000129e-01 2.215222299999999866e-01 2.166024099999999952e-01 2.639950600000000036e-01 3.246667400000000092e-01 3.596469600000000155e-01 2.376564100000000124e-01 1.671365700000000121e-01 2.048472400000000138e-01 2.906353899999999935e-01 3.633473700000000028e-01 3.376577000000000051e-01 3.411074199999999945e-01 3.000626100000000074e-01 3.962144699999999853e-01 5.162975300000000045e-01 4.543230300000000166e-01 5.577426199999999668e-01 6.783222300000000260e-01 6.154757600000000384e-01 6.956544399999999850e-01 6.469002700000000550e-01 6.074947400000000330e-01 6.696715699999999938e-01 6.515285800000000238e-01 6.249300100000000358e-01 6.807511899999999505e-01 7.085044900000000423e-01 6.433815999999999979e-01 6.190295799999999682e-01 5.023222999999999994e-01 5.154313999999999840e-01 4.812892799999999860e-01 5.301059799999999766e-01 4.589433299999999827e-01 4.729250799999999977e-01 3.924508500000000177e-01 3.939569800000000122e-01 3.708539100000000088e-01 3.801595099999999783e-01 4.126109900000000108e-01 4.042385099999999953e-01 4.874706899999999843e-01 5.790324199999999921e-01 7.062569800000000342e-01 9.686340500000000242e-01 1.152457899999999924e+00 1.276703200000000038e+00 1.393604199999999960e+00 1.654496399999999978e+00 1.622372900000000007e+00 1.585345500000000074e+00 1.502125399999999944e+00 1.338232300000000041e+00 1.233687500000000048e+00 9.118679800000000224e-01 6.918455399999999811e-01 3.070961199999999724e-01 3.647531200000000279e-02 -6.856540499999999594e-02 -2.187639200000000145e-02 -2.485605999999999927e-02 -6.746787299999999765e-02 4.557830999999999688e-02 -1.637339800000000081e-02 2.257687699999999867e-02 -1.920584800000000106e-02 -1.292949100000000129e-01 -9.347356099999999668e-02 -5.446525900000000198e-02 -3.587847499999999995e-02 2.888150600000000123e-02 4.459690800000000177e-01 1.292644600000000032e+00 1.498302199999999917e+00 1.382421200000000017e+00 1.410227200000000014e+00 1.033720999999999890e+00 4.650884299999999971e-01 -1.030536900000000033e-01 3.059556600000000182e-01 -3.809810899999999806e-02 -1.890757500000000091e+00 -3.244643299999999897e+00 -3.877220299999999842e+00 -3.107484400000000146e+00 -1.981244199999999900e+00 -1.365024599999999921e+00 -1.049509400000000037e+00 -2.236232599999999904e-01 -1.791656600000000044e-01 -1.492185500000000054e-01 -2.614712100000000095e-01
1.000000000000000000e+00 2.015469300000000130e-01 -1.795064299999999946e+00 -3.543915399999999938e+00 -4.443673099999999820e+00 -3.930961499999999997e+00 -3.403146399999999794e+00 -2.573882900000000085e+00 -1.542929199999999890e+00 -1.318174200000000074e+00 -7.020644200000000223e-01 -2.984771600000000191e-01 -2.351235700000000040e-01 -2.844340799999999780e-01 -2.602670599999999945e-01 -2.443794599999999928e-01 -3.872358599999999873e-01 -4.191862299999999930e-01 -4.540128500000000233e-01 -3.001013299999999995e-01 -2.875403899999999791e-01 -4.362530900000000100e-01 -3.606092900000000268e-01 -3.045320799999999828e-01 -5.307878200000000213e-01 -4.852752399999999966e-01 -5.086832900000000102e-01 -4.643326700000000029e-01 -4.344226299999999763e-01 -5.310123599999999611e-01 -7.523016000000000147e-01 -7.285467399999999705e-01 -7.374902100000000349e-01 -7.585828999999999489e-01 -6.825795599999999741e-01 -6.793583600000000500e-01 -8.162338999999999567e-01 -1.042224199999999934e+00 -7.649918100000000498e-01 -6.947935400000000428e-01 -7.777904599999999613e-01 -7.211101399999999551e-01 -8.040920499999999471e-01 -5.754263600000000256e-01 -4.467460300000000162e-01 -3.109987399999999957e-01 -1.440437300000000087e-01 -1.665359100000000092e-01 -1.683789300000000100e-01 -3.344266700000000231e-02 7.035794800000000349e-02 1.246888300000000005e-01 9.715228400000000542e-02 -1.101848400000000061e-01 -1.120745699999999984e-01 9.743032500000000165e-03 4.829073700000000025e-02 7.974248000000000447e-02 1.878866700000000056e-01 -8.448453800000000138e-03 -1.117404900000000013e-02 3.133327899999999860e-02 2.733626100000000059e-01 3.969467300000000254e-01 2.152152499999999968e-02 7.038797500000000019e-03 9.350141800000000281e-02 2.762687099999999729e-01 2.354647800000000124e-01 2.588429199999999764e-01 2.988788900000000082e-01 4.228710999999999998e-01 5.870592900000000114e-01 5.361783100000000468e-01 3.738203600000000182e-01 4.399317500000000103e-01 4.221089800000000225e-01 4.424388599999999894e-01 5.560278699999999796e-01 5.494488299999999992e-01 4.763050400000000129e-01 5.325304100000000096e-01 4.410968399999999900e-01 5.086941699999999456e-01 4.291591299999999998e-01 5.121451200000000092e-01 5.092375399999999885e-01 5.027670400000000539e-01 4.290808199999999739e-01 1.400194700000000070e-01 3.853077699999999939e-01 3.639398500000000092e-01 1.409447299999999903e-01 2.465906399999999998e-01 3.781637800000000049e-01 4.339371799999999779e-01 6.160263099999999659e-01 7.427669999999999551e-01 8.672900300000000451e-01 9.823471499999999468e-01 1.186010400000000020e+00 1.466599699999999951e+00 1.399516900000000064e+00 1.785901699999999925e+00 1.857135999999999898e+00 1.726204599999999978e+00 1.803797499999999943e+00 1.593708200000000019e+00 1.373645800000000028e+00 1.041512100000000052e+00 7.660745199999999810e-01 5.650294599999999834e-01 2.498240899999999987e-01 8.416624999999999801e-02 -1.247929100000000069e-01 -3.765207099999999807e-01 -4.205983099999999753e-01 -3.274190100000000103e-01 -2.640002499999999919e-01 -3.481886399999999937e-01 -9.138648000000000604e-02 -1.410159699999999905e-01 -4.861579500000000054e-01 -2.836825399999999830e-01 -2.332079699999999867e-01 -2.435883500000000090e-01 -2.688896100000000011e-01 -2.032386800000000049e-01 -8.654691300000000309e-02 -6.918848899999999885e-03 6.256038099999999824e-01 1.256766300000000003e+00 1.334490699999999919e+00 1.621144900000000000e+00 1.952105100000000037e+00 2.020403400000000183e+00 1.448982599999999898e+00 9.028673000000000393e-01 9.786287900000000262e-01 1.089838899999999944e+00 -3.765821200000000202e-01
1.000000000000000000e+00 -5.016213099999999869e-01 -1.088584100000000054e+00 -1.939749299999999899e+00 -3.888457700000000017e+00 -3.951129799999999914e+00 -3.705650499999999958e+00 -2.873720300000000005e+00 -1.951708400000000010e+00 -1.150802000000000103e+00 -8.888689100000000121e-01 -4.511114999999999986e-01 -1.296649599999999958e-01 -6.278636399999999729e-02 -1.501305199999999895e-01 -3.061335800000000162e-01 -6.049722800000000289e-01 -7.800847699999999829e-01 -6.853512200000000387e-01 -6.481768100000000477e-01 -6.425480500000000372e-01 -5.667186499999999905e-01 -4.993034000000000083e-01 -4.556072500000000192e-01 -4.973560300000000045e-01 -4.784027000000000140e-01 -4.309697599999999795e-01 -3.489320100000000147e-01 -3.812015100000000212e-01 -3.443579299999999788e-01 -2.893996799999999925e-01 -3.507758100000000212e-01 -3.415901800000000210e-01 -3.589150700000000027e-01 -3.552039699999999800e-01 -4.257250000000000201e-01 -3.990554599999999730e-01 -4.544687900000000114e-01 -4.338312100000000227e-01 -4.975168400000000157e-01 -5.948433199999999532e-01 -6.067200099999999763e-01 -6.103321800000000019e-01 -5.979030600000000417e-01 -5.917940000000000422e-01 -5.578857999999999873e-01 -5.271307800000000210e-01 -5.475483399999999667e-01 -4.749514100000000183e-01 -4.180496599999999896e-01 -3.797767499999999963e-01 -3.345338800000000057e-01 -3.022008700000000103e-01 -2.933701400000000015e-01 -3.320731299999999941e-01 -2.769681900000000030e-01 -2.628714699999999960e-01 -2.546855399999999880e-01 -2.788470000000000115e-01 -2.498610199999999892e-01 -3.246692199999999806e-01 -3.007604600000000072e-01 -3.753683899999999962e-01 -2.863871800000000190e-01 -3.099851299999999976e-01 -3.254137799999999858e-01 -2.918499700000000141e-01 -2.646575800000000034e-01 -2.709228000000000192e-01 -2.360160500000000050e-01 -2.286150799999999983e-01 -2.254585000000000061e-01 -2.061242500000000089e-01 -2.238870199999999921e-01 -2.185150399999999937e-01 -1.448083500000000023e-01 -1.198155699999999962e-01 -1.473714600000000097e-01 -3.794436999999999810e-02 -8.506297899999999690e-02 -4.636662600000000106e-02 -3.344739199999999940e-02 -4.885190499999999929e-03 1.400075599999999962e-02 2.684810199999999869e-02 5.328190299999999852e-02 6.230839299999999664e-02 7.205959500000000406e-02 1.026887199999999972e-01 1.307667000000000135e-01 1.425429400000000069e-01 2.122692100000000137e-01 2.391239199999999898e-01 2.407723999999999975e-01 2.570728299999999744e-01 3.022877500000000217e-01 2.948950499999999919e-01 2.362938499999999997e-01 3.148416199999999887e-01 3.968199499999999769e-01 4.084037500000000098e-01 4.633554999999999757e-01 4.588647100000000090e-01 5.261078399999999933e-01 5.441044200000000330e-01 5.360326399999999492e-01 5.562473999999999474e-01 6.370206000000000479e-01 6.759932199999999503e-01 7.651194500000000343e-01 9.740356999999999488e-01 1.148081200000000024e+00 1.325600399999999901e+00 1.586532599999999960e+00 1.703607400000000105e+00 1.763508400000000087e+00 1.733021099999999981e+00 1.571339700000000006e+00 1.412409500000000095e+00 1.250731400000000049e+00 9.915914399999999906e-01 6.459833400000000170e-01 5.496971999999999969e-01 5.458302400000000221e-01 6.284471600000000047e-01 6.599447099999999899e-01 6.497417100000000278e-01 6.319690100000000532e-01 6.730744100000000119e-01 6.568472300000000041e-01 7.047636499999999637e-01 7.768456999999999724e-01 8.281156200000000522e-01 1.196795700000000018e+00 1.445074699999999934e+00 1.505033000000000065e+00 1.765616700000000039e+00 2.033467499999999983e+00 2.039252100000000123e+00 2.589474200000000170e+00 2.854706999999999883e+00
3.000000000000000000e+00 5.894584800000000069e-01 -1.398981199999999869e-01 -8.281982100000000457e-01 -1.125350400000000084e+00 -1.381776300000000068e+00 -1.428328700000000007e+00 -1.193500800000000028e+00 -8.192873200000000411e-01 -5.395814500000000180e-01 -4.813661499999999926e-01 -3.269059799999999849e-01 -2.715180700000000003e-03 8.153774399999999534e-02 1.057182799999999978e-01 8.849077900000000552e-02 6.077029199999999659e-02 1.161161099999999946e-01 1.177950499999999984e-01 7.902012999999999399e-02 6.924380700000000444e-02 8.290115800000000257e-02 6.651394099999999310e-02 9.536954200000000159e-02 8.031088399999999905e-02 6.662838399999999883e-02 5.099923499999999693e-02 6.144750300000000054e-02 5.586637500000000284e-02 2.409432300000000082e-02 4.656166899999999997e-02 -1.311538899999999987e-02 -1.147793200000000102e-03 7.137859899999999744e-03 -1.635971400000000089e-02 -3.036725200000000083e-02 -3.495197500000000318e-02 -4.687319399999999997e-02 -8.099640099999999565e-02 -9.137548600000000576e-02 -1.188429399999999941e-01 -7.506235999999999464e-02 -9.846177100000000348e-02 -9.542284400000000666e-02 -1.161114500000000049e-01 -1.383460900000000049e-01 -9.186871200000000515e-02 -7.533660000000000356e-02 -9.766030800000000123e-02 -2.022309099999999860e-02 -1.279843900000000000e-02 2.133244899999999986e-02 2.400911400000000154e-02 2.775910900000000056e-02 6.623412700000000375e-02 9.592138699999999685e-02 1.030979000000000062e-01 1.449731599999999898e-01 1.649189000000000072e-01 1.820934499999999900e-01 2.101494200000000034e-01 2.108410900000000088e-01 1.911035600000000056e-01 2.179390900000000020e-01 2.209404600000000052e-01 2.381250900000000115e-01 2.250073400000000001e-01 2.232949399999999973e-01 2.481381199999999898e-01 2.320751600000000026e-01 2.734761299999999840e-01 2.958584899999999740e-01 3.013727299999999776e-01 3.054285099999999864e-01 3.114741400000000104e-01 3.552135900000000235e-01 3.153814600000000024e-01 3.137986099999999778e-01 3.470935900000000074e-01 3.399161299999999830e-01 3.517476500000000228e-01 3.904906899999999736e-01 3.663742899999999914e-01 3.890644699999999956e-01 3.961921800000000049e-01 3.954842599999999764e-01 3.835920600000000125e-01 4.160517000000000243e-01 4.266369300000000253e-01 3.967483600000000221e-01 4.160386400000000151e-01 4.485527300000000106e-01 3.917629100000000197e-01 3.855307599999999724e-01 3.908234500000000167e-01 3.657374600000000142e-01 3.586395000000000000e-01 3.856298100000000173e-01 3.767765599999999826e-01 3.949983699999999875e-01 3.642790900000000276e-01 3.313045800000000152e-01 3.568564499999999917e-01 3.659613299999999736e-01 3.808500100000000166e-01 3.693096299999999998e-01 3.509894599999999754e-01 4.015711800000000276e-01 3.263436800000000249e-01 2.914949600000000252e-01 3.233098099999999753e-01 3.192965199999999726e-01 3.337909199999999910e-01 3.297909199999999874e-01 3.285714699999999766e-01 3.518008400000000035e-01 3.726317399999999891e-01 3.956958899999999946e-01 4.845464800000000016e-01 5.616726899999999745e-01 6.730952199999999941e-01 7.459863500000000203e-01 7.596086199999999566e-01 8.431904500000000358e-01 1.004384399999999955e+00 1.191747600000000018e+00 1.338019700000000034e+00 1.458185800000000087e+00 1.349251800000000001e+00 1.101985900000000074e+00 8.405252199999999618e-01 6.565871300000000188e-01 3.639445900000000123e-01 -4.003597099999999798e-01 -1.258305400000000018e+00 -2.164501000000000008e+00 -3.072439699999999885e+00 -3.945617799999999953e+00 -4.860060999999999964e+00 -5.130646900000000343e+00 -5.292240200000000172e+00
1.000000000000000000e+00 -3.388216099999999953e-01 -1.670724099999999934e+00 -3.040589100000000045e+00 -4.175228999999999857e+00 -4.299424499999999760e+00 -3.549401299999999981e+00 -2.468914600000000181e+00 -1.781772799999999934e+00 -1.552057599999999926e+00 -8.655443400000000231e-01 -4.585838199999999754e-01 -4.431829099999999855e-01 -4.832176799999999828e-01 -3.833432999999999979e-01 -3.355660999999999783e-01 -3.671797900000000059e-01 -4.618527499999999786e-01 -4.355733299999999808e-01 -4.058058299999999785e-01 -4.297561899999999824e-01 -4.452229999999999799e-01 -4.372850300000000190e-01 -5.254232599999999476e-01 -5.182259700000000358e-01 -4.528064299999999820e-01 -5.251770700000000236e-01 -5.298284899999999853e-01 -6.770141100000000023e-01 -6.738383199999999906e-01 -6.587469799999999820e-01 -7.553442000000000212e-01 -8.320195599999999914e-01 -8.633996099999999840e-01 -8.902001600000000181e-01 -9.411054899999999890e-01 -9.341539300000000212e-01 -9.252208400000000443e-01 -8.541630199999999951e-01 -8.439190300000000144e-01 -7.917721800000000476e-01 -7.032787200000000238e-01 -6.352835700000000196e-01 -4.899286500000000211e-01 -4.557386700000000124e-01 -4.075370300000000223e-01 -2.692186599999999985e-01 -3.315266900000000128e-01 -2.262228900000000098e-01 -8.650966100000000158e-02 -5.562192900000000051e-02 -8.733378199999999869e-02 -2.698359300000000016e-02 -1.555752399999999966e-02 -9.154537799999999670e-02 -4.660723600000000327e-02 -4.585766000000000148e-02 -7.573707500000000092e-02 1.909745900000000066e-02 -6.924914599999999754e-02 -3.364970400000000250e-02 1.113122499999999980e-02 -2.550010299999999792e-03 -2.073412599999999942e-03 1.888878199999999979e-02 1.196098599999999984e-01 1.335581499999999866e-01 1.239627299999999932e-01 2.266843500000000067e-01 3.498575400000000224e-01 2.944241499999999956e-01 4.183350800000000258e-01 5.154736100000000265e-01 5.188986100000000379e-01 5.272094600000000186e-01 4.855176600000000176e-01 5.211147099999999810e-01 6.025835099999999889e-01 5.913234400000000335e-01 5.357754599999999812e-01 4.970418600000000020e-01 4.704886999999999819e-01 4.338591600000000215e-01 4.408527700000000049e-01 4.937969400000000175e-01 4.648820000000000174e-01 4.409740200000000221e-01 4.196159199999999756e-01 4.056865399999999844e-01 3.901498400000000255e-01 3.822973199999999960e-01 3.827042399999999733e-01 3.378333399999999820e-01 4.060072499999999862e-01 4.087182400000000104e-01 3.972670200000000262e-01 4.489463300000000046e-01 5.549733199999999922e-01 7.757896199999999576e-01 9.031615400000000404e-01 9.879218800000000300e-01 1.166161999999999921e+00 1.253770700000000016e+00 1.530816799999999978e+00 1.715369600000000050e+00 1.599992800000000104e+00 1.566029300000000068e+00 1.550815999999999972e+00 1.319622400000000084e+00 1.156592499999999912e+00 1.031638400000000066e+00 8.151473799999999770e-01 5.778524600000000122e-01 3.273898700000000273e-01 8.441505500000000273e-02 5.078927300000000283e-02 -2.607254700000000147e-02 -1.410467500000000055e-02 -9.752363899999999877e-03 4.989062899999999884e-02 1.946580499999999922e-02 -1.923641699999999871e-02 -2.950858500000000037e-02 -5.097290600000000185e-03 -1.889807599999999976e-02 3.379309200000000114e-03 1.189211299999999999e-01 1.528268499999999863e-01 1.449943900000000008e-01 2.863508799999999743e-01 7.426776099999999881e-01 1.459451700000000018e+00 1.728926500000000033e+00 1.874773900000000104e+00 2.237945799999999874e+00 2.118211000000000066e+00 1.523044700000000029e+00 7.817800299999999591e-01 3.908082299999999787e-01 6.126163199999999920e-01 -1.467946300000000093e-01
1.000000000000000000e+00 -1.113196499999999922e+00 -2.595514699999999841e+00 -3.179853299999999994e+00 -3.902527200000000196e+00 -3.955492800000000031e+00 -3.620755299999999899e+00 -3.064172600000000024e+00 -2.108295599999999936e+00 -1.168096599999999929e+00 -9.909869100000000541e-01 -6.003426499999999777e-01 -1.882107899999999889e-01 -4.699131699999999773e-02 4.209709600000000052e-02 1.673813899999999910e-02 4.440435699999999847e-02 3.699025400000000019e-02 2.994665200000000069e-02 4.310902999999999957e-02 -8.164919399999999786e-03 4.019369899999999940e-02 1.778092599999999898e-02 3.831629799999999864e-02 -3.495310199999999978e-02 -7.866028499999999646e-02 1.911310000000000092e-02 -1.018563200000000002e-01 -7.429666799999999627e-02 5.507407100000000222e-02 -5.619653799999999727e-02 -1.008214500000000069e-01 -9.937663100000000693e-02 -9.325870699999999625e-02 -1.825654300000000008e-01 -1.748290899999999926e-01 -6.307760900000000670e-02 -1.617467700000000119e-01 -1.332064199999999921e-01 -1.676146299999999867e-01 -1.186965199999999998e-01 -1.295344800000000074e-01 -9.323507400000000112e-02 -3.313005699999999748e-02 1.406446499999999995e-02 6.563118099999999677e-02 -2.236945799999999832e-02 5.837927999999999867e-02 2.358196800000000037e-01 1.860442599999999891e-01 1.639759199999999972e-01 1.863319099999999895e-01 2.226664899999999947e-01 2.354210999999999943e-01 3.109698599999999868e-01 2.472134599999999960e-01 1.756051600000000101e-01 1.438008699999999973e-01 1.302664400000000111e-01 1.521037299999999926e-01 2.599996900000000055e-01 1.252795999999999910e-01 1.332597799999999943e-01 7.454341999999999913e-02 8.523621900000000196e-03 -2.708916399999999891e-02 5.912729500000000332e-02 -5.382402500000000277e-04 2.729414700000000124e-02 5.809180100000000194e-03 -1.228407299999999952e-02 3.398315500000000100e-02 1.788785500000000112e-02 5.272828599999999921e-02 1.179609900000000017e-01 1.105991300000000038e-01 2.042602400000000096e-01 2.704901900000000192e-01 1.945221400000000100e-01 2.235111700000000090e-01 3.251274000000000108e-01 3.365528199999999748e-01 3.544362799999999925e-01 3.933078700000000039e-01 4.600291400000000031e-01 4.477773199999999787e-01 5.554743399999999554e-01 5.657589499999999827e-01 4.815698700000000110e-01 7.217994599999999483e-01 8.399046100000000514e-01 9.243168299999999782e-01 1.094827400000000006e+00 1.203980800000000073e+00 1.485137499999999999e+00 1.586074999999999902e+00 1.863291699999999995e+00 2.146762700000000024e+00 2.266010899999999939e+00 2.157133299999999920e+00 1.921932399999999985e+00 1.753824599999999956e+00 1.684047499999999919e+00 1.245714299999999941e+00 1.066598399999999947e+00 6.984794199999999620e-01 3.726602099999999917e-01 6.578890299999999580e-02 -2.604715200000000137e-03 -1.317905799999999905e-01 -3.468350199999999939e-01 -2.398664299999999916e-01 -3.515305699999999867e-01 -3.087203099999999978e-01 -3.065305099999999783e-01 -3.711767000000000261e-01 -3.962717900000000126e-01 -4.119522700000000093e-01 -3.613372200000000145e-01 -3.912167400000000073e-01 -3.290758200000000189e-01 -3.752056500000000017e-01 -3.733249100000000098e-01 -3.375143400000000238e-01 -2.256372799999999956e-01 -1.842196799999999968e-01 1.514616699999999927e-01 6.371196700000000268e-01 1.123700700000000108e+00 1.196062900000000040e+00 1.101633899999999944e+00 9.317217599999999544e-01 6.425245699999999616e-01 2.541181499999999871e-01 -6.154946499999999765e-02 -4.791164500000000270e-01 -5.717685599999999813e-01 -1.824872300000000003e-01 -7.149663299999999833e-01 -1.309415199999999890e+00 -2.622448900000000194e+00
1.000000000000000000e+00 1.723749299999999929e+00 5.187678599999999696e-01 -1.521004000000000023e+00 -2.651968500000000173e+00 -4.055954500000000351e+00 -4.052237599999999773e+00 -3.005272300000000119e+00 -1.938414800000000104e+00 -1.915353000000000083e+00 -1.144226200000000082e+00 -2.641258100000000164e-01 -2.100964499999999902e-01 -3.093334400000000151e-01 -4.072986599999999791e-01 -3.324997900000000173e-01 -3.561472099999999918e-01 -3.277155500000000221e-01 -3.644972300000000054e-01 -4.482454599999999845e-01 -4.817623400000000111e-01 -3.411922800000000144e-01 -5.254168299999999459e-01 -5.964229699999999967e-01 -6.388078400000000157e-01 -6.365555699999999595e-01 -6.315667299999999651e-01 -6.957465499999999636e-01 -7.081120100000000139e-01 -7.788838500000000442e-01 -8.864909499999999998e-01 -8.872468100000000524e-01 -9.955420499999999562e-01 -1.084895299999999896e+00 -9.844590600000000524e-01 -1.107257799999999959e+00 -1.188110699999999964e+00 -1.200731900000000074e+00 -1.220049600000000067e+00 -1.248861500000000069e+00 -1.341775299999999893e+00 -1.187196799999999941e+00 -1.133299899999999916e+00 -1.179254900000000106e+00 -9.835628800000000282e-01 -9.444499699999999720e-01 -6.473262800000000317e-01 -5.050100100000000092e-01 -3.608511300000000199e-01 -3.337192800000000070e-01 -1.968812699999999971e-01 -1.752455800000000119e-01 -1.871354600000000035e-01 4.297148600000000318e-02 2.538689599999999994e-03 8.205980599999999903e-02 6.587824800000000036e-02 1.384615299999999993e-01 -2.737824099999999847e-03 1.815241800000000072e-01 1.649412899999999904e-01 2.276040400000000075e-01 1.985388200000000047e-01 2.724493399999999843e-01 2.438739400000000113e-01 2.631081699999999746e-01 3.607705700000000126e-01 3.263298000000000032e-01 3.913772300000000204e-01 4.304951399999999984e-01 4.630964699999999823e-01 4.796001599999999976e-01 6.004815799999999593e-01 6.176698800000000045e-01 5.818429699999999594e-01 6.376589700000000471e-01 6.057232799999999751e-01 6.737541799999999803e-01 6.018400200000000311e-01 7.627944399999999625e-01 7.635108200000000345e-01 7.565291400000000444e-01 6.794221000000000288e-01 7.700129300000000399e-01 6.530980100000000066e-01 5.118136800000000486e-01 5.581390200000000412e-01 6.574443599999999499e-01 6.078921299999999750e-01 6.208369200000000143e-01 4.880949600000000221e-01 4.701099000000000250e-01 5.290778900000000506e-01 4.226354999999999973e-01 4.333342700000000214e-01 4.901049499999999837e-01 3.853545800000000021e-01 3.907580900000000024e-01 4.176165199999999911e-01 4.679022800000000037e-01 4.777356999999999854e-01 7.087063799999999691e-01 9.075152600000000458e-01 1.017089499999999980e+00 1.121186299999999969e+00 1.157161899999999966e+00 1.257009599999999949e+00 1.678845099999999979e+00 1.774417499999999981e+00 1.481923399999999891e+00 1.140030700000000063e+00 9.360007099999999580e-01 8.609512000000000276e-01 9.460817000000000254e-01 9.623892499999999739e-01 6.272201400000000371e-01 1.237971199999999966e-01 -1.531135999999999886e-01 -2.075427999999999995e-01 -2.676587999999999745e-01 -1.871128300000000078e-01 -1.642239299999999902e-01 -2.886510999999999938e-01 -2.770813500000000040e-01 -8.095806299999999678e-02 -7.212883300000000331e-02 -2.064667199999999925e-01 -4.220074800000000320e-02 -8.133231500000000225e-02 -1.180398700000000051e-01 -1.504713900000000104e-01 2.159058199999999792e-03 2.491301800000000066e-01 7.038060900000000508e-01 8.045108800000000393e-01 1.401486699999999974e+00 1.986297900000000061e+00 2.125186100000000078e+00 2.022911699999999868e+00 1.011452299999999971e+00 1.399340400000000040e+00
1.000000000000000000e+00 1.839705299999999932e-01 -2.357214499999999990e+00 -3.927767100000000067e+00 -4.164257199999999770e+00 -4.048790799999999912e+00 -3.694646200000000213e+00 -2.733736500000000014e+00 -1.301391900000000046e+00 -1.077369000000000021e+00 -7.460863500000000093e-01 -1.676982200000000089e-01 -9.264712399999999737e-02 -6.943007299999999493e-02 -1.739764000000000033e-01 -1.107769700000000024e-01 -1.439134499999999983e-01 -9.037387800000000471e-02 -7.713806800000000408e-02 -1.985134699999999974e-01 -1.353388000000000091e-01 -1.978353399999999984e-01 -2.447409100000000060e-01 -2.455385900000000010e-01 -1.924180000000000057e-01 -1.467647300000000099e-01 -2.206455599999999906e-01 -1.755710600000000010e-01 -2.393636799999999953e-01 -3.820536199999999827e-01 -3.699041299999999977e-01 -3.196726599999999974e-01 -3.932339100000000198e-01 -4.870942799999999906e-01 -4.279712800000000095e-01 -4.828195499999999862e-01 -5.599819200000000219e-01 -6.036883499999999847e-01 -4.616872100000000145e-01 -4.526928199999999958e-01 -4.499774500000000010e-01 -4.153688799999999959e-01 -3.803310899999999828e-01 -3.231431000000000164e-01 -1.871374700000000002e-01 -1.236325800000000058e-01 -1.351413099999999867e-01 -1.906821699999999842e-02 -1.478652899999999965e-02 1.227402100000000024e-01 2.348899100000000073e-01 7.278816000000000452e-02 1.101875600000000038e-01 1.185819099999999987e-01 1.155523900000000048e-01 1.348099299999999945e-01 1.201169500000000001e-01 1.683203100000000008e-01 1.052439099999999961e-01 8.393649999999999722e-02 1.376404900000000042e-01 2.036640100000000064e-01 2.330617000000000105e-01 1.353734900000000130e-01 2.024218100000000076e-01 2.261228999999999878e-01 2.319787100000000046e-01 3.927177499999999766e-01 3.216786799999999946e-01 4.341938699999999818e-01 3.992484299999999875e-01 4.881188699999999825e-01 5.277650999999999870e-01 5.247253200000000506e-01 5.417162800000000500e-01 4.413996600000000270e-01 5.720306800000000136e-01 4.187272400000000006e-01 3.749205199999999794e-01 5.496066899999999533e-01 4.660574599999999790e-01 3.555530000000000079e-01 4.343861700000000159e-01 3.787545700000000126e-01 3.291187099999999810e-01 2.135514500000000038e-01 2.695572399999999758e-01 2.113234499999999960e-01 2.433591200000000121e-01 3.223943899999999751e-01 2.553363000000000160e-01 2.234405700000000050e-01 2.598132400000000009e-01 3.268216899999999980e-01 3.575168100000000182e-01 4.411194900000000030e-01 5.938690899999999884e-01 7.650357899999999933e-01 1.047421799999999958e+00 1.073339599999999949e+00 1.347146299999999908e+00 1.636599799999999938e+00 1.790986600000000095e+00 1.874781199999999926e+00 1.739483200000000007e+00 1.719080699999999906e+00 1.497323900000000041e+00 1.379096199999999994e+00 1.136833200000000099e+00 8.024359399999999587e-01 4.787992600000000043e-01 1.016811900000000046e-01 -1.414770599999999878e-01 -3.046676799999999963e-01 -3.111814600000000208e-01 -2.572983899999999879e-01 -2.677007599999999821e-01 -2.955783000000000160e-01 -2.925094699999999937e-01 -2.351789900000000044e-01 -3.645638199999999829e-01 -2.433986700000000114e-01 -2.532983600000000002e-01 -1.933215899999999876e-01 -2.612221599999999810e-01 -3.314000599999999963e-01 -2.364159200000000016e-01 -1.824562499999999865e-01 4.180676099999999784e-02 4.028011599999999914e-01 7.891268099999999563e-01 8.813693599999999906e-01 1.022317700000000107e+00 1.111337000000000019e+00 1.180915099999999995e+00 1.209561300000000061e+00 8.580105300000000490e-01 1.254785299999999992e+00 8.703173600000000398e-01 -9.219621599999999750e-01 -3.565654900000000183e+00
3.000000000000000000e+00 7.559492199999999773e-01 3.469138900000000025e-01 3.296952000000000216e-01 3.021051900000000234e-01 4.229158299999999926e-01 6.106397500000000367e-01 7.780125500000000249e-01 8.125313699999999750e-01 8.786707999999999741e-01 9.883648000000000433e-01 1.003216899999999967e+00 9.884038000000000546e-01 9.926173900000000438e-01 9.976915100000000036e-01 1.005227799999999894e+00 9.730452800000000124e-01 9.803267199999999848e-01 9.836266399999999965e-01 9.777125800000000533e-01 9.546505199999999469e-01 9.620759899999999920e-01 9.423534700000000264e-01 9.327896100000000468e-01 9.129939599999999933e-01 9.122531999999999863e-01 8.945330999999999699e-01 8.751222300000000009e-01 8.632268600000000403e-01 8.494820600000000388e-01 8.600254400000000299e-01 8.328244000000000202e-01 7.995430399999999826e-01 8.126396700000000362e-01 7.940171999999999786e-01 7.813699899999999587e-01 7.895149900000000276e-01 7.870080400000000198e-01 7.840823599999999782e-01 7.881564100000000295e-01 7.745029900000000023e-01 7.825300499999999770e-01 7.793363800000000507e-01 7.926383399999999968e-01 8.008538800000000180e-01 7.987261799999999523e-01 7.941446699999999970e-01 8.170601400000000458e-01 8.301484099999999478e-01 8.303702699999999659e-01 8.683746900000000046e-01 8.796851500000000268e-01 8.630702000000000096e-01 8.447451299999999552e-01 8.408450699999999722e-01 8.268558599999999981e-01 8.211312499999999792e-01 7.848481400000000274e-01 7.896687799999999591e-01 7.884265999999999774e-01 7.705743400000000243e-01 7.672862599999999977e-01 7.439436799999999961e-01 7.378072100000000466e-01 7.035059599999999858e-01 7.046179000000000192e-01 6.643379999999999841e-01 6.619027499999999842e-01 6.690325000000000299e-01 6.373147599999999802e-01 6.167934400000000261e-01 6.332150199999999618e-01 5.799067900000000053e-01 5.674339000000000466e-01 5.400218100000000465e-01 5.177366199999999807e-01 4.826616000000000239e-01 4.754374699999999732e-01 4.440778699999999857e-01 3.946790499999999757e-01 3.471690599999999738e-01 3.081149400000000038e-01 2.530018399999999779e-01 1.747391199999999978e-01 1.162296300000000004e-01 7.798072699999999968e-02 2.024684399999999995e-02 -3.969195500000000099e-02 -1.091522199999999942e-01 -1.585068699999999942e-01 -2.251333899999999888e-01 -2.804843699999999829e-01 -3.448008799999999763e-01 -4.015634900000000229e-01 -4.499341600000000274e-01 -4.969750499999999738e-01 -5.151942099999999858e-01 -5.452439599999999720e-01 -5.310394499999999685e-01 -5.462470000000000381e-01 -5.305855299999999719e-01 -5.354386100000000370e-01 -5.345841900000000146e-01 -5.729590900000000042e-01 -6.543889099999999903e-01 -7.303985200000000511e-01 -8.344089599999999773e-01 -9.394978299999999782e-01 -1.031287199999999959e+00 -1.113373100000000004e+00 -1.202233600000000013e+00 -1.274286400000000041e+00 -1.370097300000000073e+00 -1.437063900000000061e+00 -1.482391800000000037e+00 -1.518547199999999986e+00 -1.548428700000000102e+00 -1.553020899999999926e+00 -1.580061600000000066e+00 -1.589300600000000063e+00 -1.610585600000000062e+00 -1.611152200000000034e+00 -1.638287199999999944e+00 -1.657809899999999947e+00 -1.647712599999999972e+00 -1.661865200000000042e+00 -1.667909899999999945e+00 -1.673934999999999951e+00 -1.688431100000000074e+00 -1.691363699999999914e+00 -1.694018999999999942e+00 -1.677818699999999996e+00 -1.653083199999999975e+00 -1.619546500000000000e+00 -1.641483800000000048e+00 -1.697970100000000038e+00 -1.776741399999999915e+00 -1.750183999999999962e+00 -1.829561999999999911e+00 -1.694590199999999935e+00 -1.913688700000000020e+00
1.000000000000000000e+00 1.423231099999999971e+00 1.673122599999999904e+00 3.513292499999999818e-01 -1.463254800000000078e+00 -2.927487399999999962e+00 -4.007862000000000258e+00 -3.711384100000000075e+00 -2.651975499999999819e+00 -1.913532999999999928e+00 -1.793887000000000009e+00 -7.192328999999999528e-01 -2.023518699999999892e-01 -1.602771900000000138e-01 -2.071295099999999889e-01 -2.995270999999999906e-01 -1.385282999999999931e-01 -3.364983899999999806e-01 -2.170076400000000016e-01 -3.059819200000000183e-01 -3.496811599999999909e-01 -3.094551999999999858e-01 -3.327247400000000188e-01 -3.925327900000000203e-01 -4.305410900000000152e-01 -4.856788499999999953e-01 -6.187253600000000020e-01 -6.453125699999999743e-01 -7.289155499999999677e-01 -7.214972299999999894e-01 -8.174838800000000516e-01 -8.815773500000000373e-01 -1.009294499999999983e+00 -9.715588899999999528e-01 -1.006789600000000062e+00 -1.106791000000000080e+00 -1.080735400000000013e+00 -1.261991499999999933e+00 -1.221390100000000034e+00 -1.161685099999999915e+00 -1.172237100000000032e+00 -1.100520100000000001e+00 -1.155677999999999983e+00 -9.976148900000000319e-01 -9.450558700000000201e-01 -7.578863999999999601e-01 -6.991940300000000219e-01 -6.031773099999999665e-01 -4.096351999999999771e-01 -4.075763000000000025e-01 -1.502974199999999871e-01 -2.661447200000000013e-01 -1.367973299999999948e-01 -7.695618899999999429e-02 4.089765499999999804e-02 -6.682692299999999641e-02 1.630268500000000079e-02 6.565204899999999705e-03 3.088911100000000035e-02 7.706097800000000220e-02 7.981379800000000524e-02 8.741024399999999805e-02 1.760096699999999861e-02 1.750715200000000082e-01 1.184666100000000000e-01 2.122545600000000088e-01 2.381955000000000044e-01 2.112694499999999975e-01 2.354059199999999907e-01 3.167754300000000245e-01 2.911558300000000044e-01 2.890561799999999959e-01 3.354781099999999960e-01 3.987023699999999726e-01 5.170529299999999662e-01 4.537011899999999764e-01 5.140443399999999885e-01 5.650420299999999729e-01 4.840321200000000101e-01 5.387954900000000436e-01 5.115043900000000310e-01 5.061714499999999672e-01 3.617254200000000197e-01 3.985060100000000216e-01 4.125042600000000115e-01 3.730475699999999950e-01 3.247747699999999904e-01 4.980109400000000131e-01 3.387925900000000046e-01 3.380801199999999840e-01 4.151201400000000263e-01 3.814126400000000250e-01 3.010259299999999971e-01 3.395763299999999818e-01 2.282401099999999960e-01 2.597038700000000033e-01 3.827993100000000037e-01 1.900620299999999929e-01 2.350829100000000060e-01 2.489426399999999928e-01 4.161176699999999951e-01 6.756773099999999754e-01 9.388640900000000400e-01 1.214828400000000030e+00 1.425753599999999954e+00 1.437732599999999916e+00 1.687485399999999913e+00 2.115750699999999984e+00 2.182570899999999980e+00 2.215739399999999915e+00 2.054773200000000077e+00 1.928571800000000058e+00 1.616549199999999908e+00 1.362840499999999899e+00 1.125910900000000048e+00 5.036039399999999722e-01 -4.207539099999999671e-02 -2.508726900000000093e-01 -3.076894800000000152e-01 -4.507799399999999901e-01 -4.178455300000000205e-01 -2.550048200000000209e-01 -3.283540300000000189e-01 -2.857365800000000178e-01 -2.563342499999999857e-01 -2.386509900000000073e-01 -2.631889600000000273e-01 -1.615327599999999975e-01 -2.297163000000000121e-01 -2.399163400000000057e-01 -2.253438399999999897e-01 -8.123485299999999576e-02 1.868910799999999872e-01 8.198670599999999808e-01 8.983013100000000195e-01 1.037710399999999922e+00 1.318916999999999895e+00 1.633258400000000110e+00 1.492707900000000087e+00 9.258296499999999485e-01 1.610096200000000088e+00
