1.000000000000000000e+00 -5.366391900000000437e-01 -2.740850599999999915e+00 -3.819518500000000039e+00 -4.121590000000000309e+00 -3.911808800000000197e+00 -3.424299700000000168e+00 -2.425515499999999935e+00 -1.556513199999999930e+00 -1.437172899999999975e+00 -8.777243000000000128e-01 -3.874084999999999890e-01 -2.892280199999999746e-01 -3.397534999999999861e-01 -3.054195900000000186e-01 -2.995062600000000241e-01 -2.616130099999999792e-01 -2.318548099999999945e-01 -3.689785899999999952e-01 -2.902309499999999876e-01 -2.904506099999999980e-01 -3.681665800000000210e-01 -3.162444300000000208e-01 -3.435068099999999958e-01 -3.883038999999999796e-01 -3.626428800000000008e-01 -4.612473899999999793e-01 -4.720593499999999887e-01 -5.507384100000000116e-01 -6.345179399999999470e-01 -6.808764899999999454e-01 -5.164377199999999890e-01 -5.856569600000000042e-01 -6.920524500000000412e-01 -7.673415700000000284e-01 -7.749387899999999885e-01 -7.459861700000000040e-01 -6.857095699999999905e-01 -7.233086300000000080e-01 -6.954317100000000362e-01 -5.659068200000000326e-01 -6.114599099999999954e-01 -4.874912800000000268e-01 -3.692050599999999738e-01 -3.801611200000000190e-01 -2.610270900000000172e-01 -1.910337599999999969e-01 -1.539705199999999996e-01 -9.339641699999999547e-02 -1.283764400000000083e-01 -6.505068099999999909e-02 -1.220284299999999933e-01 -9.094970500000000568e-02 -4.274181199999999708e-02 -6.972860200000000064e-03 -2.757046100000000097e-02 -3.497823099999999852e-02 -6.520287900000000351e-03 3.771725699999999709e-02 -6.043198100000000267e-02 -3.955522399999999994e-02 1.799914700000000006e-02 2.057431800000000116e-02 2.831070800000000040e-02 1.237723099999999965e-01 6.625904500000000252e-02 1.033925700000000031e-01 8.105701899999999405e-02 2.342187400000000086e-01 3.140403500000000236e-01 3.023757200000000145e-01 4.781640999999999808e-01 5.367707000000000450e-01 4.155004199999999814e-01 4.647857400000000028e-01 4.717866800000000138e-01 4.229189999999999894e-01 5.094598999999999656e-01 5.286900199999999828e-01 4.825417100000000126e-01 5.193570400000000475e-01 4.730340199999999995e-01 5.036352099999999998e-01 4.607683100000000143e-01 4.851385500000000017e-01 4.596881500000000176e-01 4.310882200000000219e-01 4.051819199999999732e-01 3.973421899999999840e-01 3.844346699999999784e-01 3.483677099999999971e-01 4.418928400000000090e-01 4.271806799999999793e-01 4.291972700000000196e-01 5.737117499999999648e-01 6.907359499999999874e-01 7.814882100000000165e-01 9.865307899999999908e-01 1.130833999999999895e+00 1.179296200000000017e+00 1.452883799999999948e+00 1.637962499999999988e+00 1.823936500000000072e+00 1.826862900000000067e+00 1.777118699999999940e+00 1.705983999999999945e+00 1.581970799999999899e+00 1.339737699999999920e+00 1.151112200000000030e+00 9.179050300000000107e-01 7.568720399999999682e-01 2.054033600000000070e-01 -6.654196900000000636e-02 -1.344348399999999999e-01 -2.119459599999999888e-01 -2.303452500000000014e-01 -3.079665899999999845e-01 -2.881808699999999779e-01 -2.621717700000000262e-01 -3.064621599999999835e-01 -3.047829100000000180e-01 -2.058823800000000037e-01 -3.462792100000000040e-01 -2.135627099999999889e-01 -2.072020900000000054e-01 -2.240223100000000023e-01 -2.725114100000000095e-01 -2.210351100000000069e-01 -1.181152000000000035e-01 1.454475799999999930e-01 5.326412000000000369e-01 9.096715899999999744e-01 9.643085900000000210e-01 1.191676900000000039e+00 1.366570800000000085e+00 1.526844599999999996e+00 1.576897599999999899e+00 1.347280400000000045e+00 1.316501099999999980e+00 1.690257700000000085e+00 4.464286700000000274e-01
1.000000000000000000e+00 -4.481160100000000091e-01 -2.616541999999999923e+00 -3.988781200000000027e+00 -4.643057100000000048e+00 -3.984220099999999931e+00 -3.190722399999999848e+00 -2.082041699999999995e+00 -1.436085499999999904e+00 -1.305720999999999909e+00 -5.201354099999999647e-01 -2.933821300000000187e-01 -4.335570000000000257e-01 -3.221773900000000079e-01 -2.712873000000000090e-01 -2.372870499999999994e-01 -2.681342400000000237e-01 -2.537033399999999994e-01 -2.865640400000000199e-01 -3.443976699999999891e-01 -2.690388899999999750e-01 -3.376940399999999731e-01 -3.032101099999999771e-01 -3.550091699999999850e-01 -4.029188899999999740e-01 -3.221350800000000181e-01 -3.594710300000000247e-01 -4.070945699999999889e-01 -5.136400800000000544e-01 -5.273979699999999937e-01 -5.130909900000000246e-01 -6.084378999999999760e-01 -6.456757899999999717e-01 -6.141086399999999834e-01 -7.134509700000000176e-01 -6.050152899999999834e-01 -7.471735499999999641e-01 -7.345482599999999529e-01 -7.625515000000000487e-01 -5.992496999999999963e-01 -5.477588199999999796e-01 -5.813532799999999723e-01 -4.604365100000000210e-01 -4.882720799999999972e-01 -3.829099599999999937e-01 -2.465060900000000110e-01 -2.415772300000000039e-01 -1.011122700000000041e-01 1.316097199999999995e-02 7.431518800000000077e-03 -5.159720000000000278e-02 4.164934099999999945e-02 -1.373025500000000024e-02 1.625212200000000079e-02 -4.314034099999999872e-02 5.253824099999999941e-02 4.611980200000000141e-02 -2.537780400000000033e-02 6.554812900000000012e-03 5.339714899999999792e-02 4.745528200000000141e-02 1.262186000000000037e-02 8.398232599999999604e-02 1.234632799999999947e-01 9.983649299999999838e-02 1.167629399999999956e-01 2.610225299999999748e-01 2.206145599999999873e-01 2.784315500000000276e-01 3.747737600000000113e-01 3.783344699999999783e-01 4.449828100000000064e-01 5.264030200000000548e-01 4.940717000000000025e-01 5.298514300000000121e-01 6.008828000000000502e-01 5.685878100000000268e-01 6.120664500000000396e-01 6.110002199999999828e-01 6.000541999999999820e-01 5.529346099999999931e-01 5.561449600000000215e-01 6.151189900000000321e-01 5.213371799999999556e-01 5.207845199999999730e-01 5.059007100000000312e-01 4.827736699999999881e-01 4.287742600000000182e-01 4.323019300000000009e-01 3.633233399999999946e-01 4.366130899999999815e-01 3.697201999999999988e-01 4.364797300000000102e-01 5.189673500000000494e-01 5.324148300000000056e-01 5.562141099999999838e-01 6.626006500000000132e-01 8.355725999999999987e-01 9.790364599999999973e-01 1.070555600000000052e+00 1.335674900000000109e+00 1.597256699999999974e+00 1.786779099999999953e+00 1.820017800000000019e+00 1.863165799999999983e+00 1.743942199999999998e+00 1.556227299999999980e+00 1.445418499999999939e+00 1.123718699999999959e+00 9.080728300000000530e-01 6.545531300000000385e-01 2.296789200000000086e-01 -3.393811199999999945e-02 -1.612597799999999915e-01 -3.463532799999999856e-01 -3.052520200000000128e-01 -2.133971400000000129e-01 -3.497116699999999745e-01 -2.944865500000000136e-01 -3.736105900000000202e-01 -2.794893500000000253e-01 -3.260179000000000271e-01 -3.211318100000000175e-01 -2.444820500000000063e-01 -2.959843999999999808e-01 -1.126606200000000030e-01 -1.588022699999999954e-01 -2.372027399999999953e-01 4.901578100000000132e-02 6.994148799999999611e-01 1.225732599999999950e+00 1.086196699999999904e+00 1.154610399999999926e+00 1.347590899999999925e+00 1.340456499999999940e+00 1.017903699999999967e+00 7.011110499999999579e-01 1.135903899999999966e+00 1.341560700000000050e+00 4.631571899999999964e-01 -1.722655400000000059e+00
1.000000000000000000e+00 -3.943439599999999934e-01 -2.824230899999999878e+00 -4.122983900000000368e+00 -5.009913799999999640e+00 -4.339506499999999711e+00 -3.355605999999999867e+00 -1.962268600000000029e+00 -1.582434600000000025e+00 -1.296912400000000076e+00 -3.509046299999999952e-01 -1.808164899999999964e-01 -2.818549000000000193e-01 -2.658960400000000002e-01 -2.070718900000000084e-01 -1.655105500000000063e-01 -2.188556000000000112e-01 -1.823306500000000108e-01 -2.033749400000000040e-01 -2.622606599999999788e-01 -2.150569900000000034e-01 -2.215399600000000080e-01 -1.845647699999999891e-01 -2.645953699999999964e-01 -3.238899599999999768e-01 -2.708610499999999921e-01 -3.466831699999999850e-01 -4.188641699999999801e-01 -4.546275000000000177e-01 -5.466326799999999819e-01 -5.704741199999999735e-01 -5.786782799999999893e-01 -6.921896300000000002e-01 -7.851495200000000452e-01 -6.859622300000000061e-01 -7.556250100000000414e-01 -8.422767199999999788e-01 -7.731015399999999760e-01 -8.433480399999999655e-01 -7.204836500000000310e-01 -6.829032800000000014e-01 -6.935997499999999594e-01 -4.832677300000000065e-01 -4.299413000000000262e-01 -3.372822300000000162e-01 -2.123717499999999980e-01 -1.325902700000000101e-01 -1.716758499999999910e-02 3.426804800000000234e-02 1.798386999999999902e-02 4.954576100000000066e-02 6.797119899999999604e-02 2.283358600000000016e-01 9.233415300000000214e-02 1.334168699999999930e-01 2.046355699999999889e-01 9.444840300000000022e-02 1.825075999999999921e-01 2.005643199999999904e-01 3.227770799999999940e-01 2.238269099999999900e-01 2.876916700000000104e-01 2.980452499999999838e-01 2.573437100000000033e-01 3.733546300000000207e-01 3.095936699999999875e-01 3.779419900000000054e-01 4.290841899999999765e-01 4.470991999999999744e-01 6.030980700000000416e-01 5.241169599999999651e-01 5.650369400000000430e-01 6.230775600000000303e-01 5.617580899999999877e-01 6.689436500000000008e-01 5.460897799999999691e-01 6.373358300000000476e-01 6.662936900000000495e-01 6.876124300000000522e-01 6.360712400000000377e-01 4.640011099999999944e-01 4.574817099999999859e-01 4.775202700000000244e-01 4.623260299999999989e-01 4.812603200000000192e-01 3.849873899999999849e-01 3.501732599999999862e-01 3.494581099999999885e-01 3.730680599999999791e-01 3.187874700000000172e-01 4.219158700000000262e-01 3.306519399999999775e-01 3.535988600000000148e-01 4.454832300000000078e-01 4.110406999999999811e-01 5.581490799999999641e-01 6.465588199999999786e-01 7.567281599999999830e-01 8.306417000000000384e-01 9.874276199999999504e-01 1.217267099999999935e+00 1.527553099999999997e+00 1.500326199999999943e+00 1.576859299999999964e+00 1.811467900000000020e+00 1.693304700000000107e+00 1.397193600000000036e+00 1.113908300000000073e+00 9.134716000000000502e-01 6.924090200000000417e-01 6.537051999999999863e-01 5.102383799999999914e-01 2.308571000000000095e-01 -1.270986500000000075e-01 -2.257798000000000027e-01 -2.611811900000000075e-01 -3.017342299999999922e-01 -2.280738499999999946e-01 -1.952070200000000089e-01 -3.193476800000000226e-01 -2.771431300000000153e-01 -4.055671100000000084e-01 -4.070036799999999788e-01 -2.194944699999999971e-01 -3.317061600000000277e-01 -3.013404299999999925e-01 -2.797252399999999861e-01 -1.036282699999999946e-01 -1.211019400000000051e-01 2.078234300000000034e-01 5.549977099999999774e-01 1.046038400000000035e+00 1.136403400000000063e+00 9.813483899999999593e-01 9.095306199999999563e-01 9.312912500000000149e-01 6.266329899999999453e-01 6.252644499999999717e-01 1.197195400000000021e+00 1.303320899999999893e+00 -7.759342200000000078e-01
1.000000000000000000e+00 9.132186500000000207e-01 -1.306391400000000091e+00 -3.023061999999999916e+00 -4.307611399999999868e+00 -4.262489200000000089e+00 -3.447092099999999881e+00 -2.521222199999999969e+00 -1.677270800000000062e+00 -1.498305299999999951e+00 -8.849957299999999805e-01 -3.636883100000000146e-01 -2.975931299999999835e-01 -3.028538900000000145e-01 -4.349337099999999734e-01 -2.535014700000000065e-01 -2.872582699999999822e-01 -3.519852199999999876e-01 -3.032985200000000159e-01 -3.673329399999999967e-01 -3.923470299999999855e-01 -4.781000699999999881e-01 -3.816752099999999870e-01 -3.965526999999999802e-01 -4.843715499999999841e-01 -5.459253699999999654e-01 -5.364377000000000173e-01 -5.789202700000000146e-01 -6.320809099999999958e-01 -6.175190900000000482e-01 -6.748709699999999589e-01 -6.921599800000000080e-01 -7.966252299999999620e-01 -8.355806999999999540e-01 -8.158440399999999926e-01 -1.045898599999999901e+00 -9.972460800000000347e-01 -9.584330100000000296e-01 -1.035574100000000053e+00 -9.667869100000000548e-01 -9.459968899999999792e-01 -8.336362400000000283e-01 -7.210208399999999962e-01 -7.130364399999999936e-01 -5.929174299999999675e-01 -5.124939600000000262e-01 -4.345419799999999944e-01 -3.843677099999999736e-01 -2.315169499999999991e-01 -2.604614399999999885e-01 -1.663178700000000065e-01 -1.531018700000000010e-01 -3.453504200000000104e-03 -7.002824900000000075e-02 -1.640555200000000033e-02 -4.144211600000000106e-02 -3.559826499999999699e-02 -6.409607700000000130e-02 2.507821999999999829e-03 8.369792600000000582e-02 4.084614500000000037e-02 1.442157000000000022e-01 1.720533800000000058e-01 1.277629399999999915e-01 1.674788000000000110e-01 1.718685100000000021e-01 1.956290300000000093e-01 1.661332000000000086e-01 3.521141799999999988e-01 4.210152699999999970e-01 4.363245000000000040e-01 4.606484200000000029e-01 4.837921900000000108e-01 4.872626800000000036e-01 5.518568600000000046e-01 6.220491099999999607e-01 5.271891699999999847e-01 5.819667099999999982e-01 5.822311599999999698e-01 5.757673800000000508e-01 5.050949900000000214e-01 4.889830499999999747e-01 5.303056800000000015e-01 4.654091000000000200e-01 4.289105500000000015e-01 5.007599799999999934e-01 5.246771000000000074e-01 4.873580000000000134e-01 4.393246299999999938e-01 4.669243200000000038e-01 3.588451599999999964e-01 3.386969000000000229e-01 4.359308100000000019e-01 3.626180700000000146e-01 3.716583600000000209e-01 3.601509600000000200e-01 4.125662199999999835e-01 5.806160500000000502e-01 7.009328700000000412e-01 8.685807800000000523e-01 9.976883300000000121e-01 1.157297800000000043e+00 1.337448600000000098e+00 1.582608999999999932e+00 1.813201700000000027e+00 1.779100399999999915e+00 1.792162599999999939e+00 1.719359999999999999e+00 1.453974700000000064e+00 1.273603599999999947e+00 1.071935800000000105e+00 8.752146899999999619e-01 4.976711699999999960e-01 1.750717199999999862e-01 -6.204777999999999683e-02 -1.256317999999999879e-01 -1.990384900000000123e-01 -2.150380400000000136e-01 -1.678885900000000042e-01 -2.260076699999999938e-01 -2.378429900000000041e-01 -1.978124300000000113e-01 -2.504721400000000098e-01 -1.790674999999999906e-01 -1.136911399999999961e-01 -1.579102500000000020e-01 -1.754409500000000122e-01 -8.657661499999999566e-02 -4.243599199999999877e-02 3.803050399999999970e-02 2.679258299999999759e-01 8.551522000000000290e-01 1.066765500000000033e+00 1.028102300000000024e+00 1.139489299999999927e+00 1.203826300000000016e+00 1.199671900000000013e+00 1.198024800000000001e+00 1.479194899999999979e+00 2.201847100000000168e+00 1.270826900000000093e+00
1.000000000000000000e+00 -2.961935600000000224e-01 -1.937092800000000059e+00 -2.888424200000000219e+00 -3.833291399999999793e+00 -4.374498499999999623e+00 -4.124156400000000389e+00 -3.165177499999999977e+00 -1.890253600000000089e+00 -1.402998900000000049e+00 -1.016394800000000043e+00 -2.573416099999999984e-01 -1.273554000000000075e-01 -8.860613400000000306e-02 -1.858693499999999887e-01 -2.969224400000000097e-01 -1.678176899999999916e-01 -2.079441399999999995e-01 -2.590756900000000251e-01 -2.376860299999999926e-01 -2.666515700000000044e-01 -2.296294600000000075e-01 -1.699169700000000005e-01 -2.738186499999999968e-01 -2.244749799999999906e-01 -2.051949899999999938e-01 -3.456700100000000275e-01 -3.961329000000000100e-01 -4.634280700000000253e-01 -4.594062199999999763e-01 -3.807181099999999985e-01 -4.316589800000000254e-01 -5.758283199999999491e-01 -5.876166299999999731e-01 -6.155441000000000384e-01 -6.464348199999999656e-01 -6.645569000000000059e-01 -5.996456700000000195e-01 -7.476976100000000125e-01 -6.785756099999999957e-01 -6.131643399999999744e-01 -6.101920400000000466e-01 -4.586295100000000180e-01 -4.390280899999999820e-01 -3.334630199999999989e-01 -1.884751899999999869e-01 -1.354026999999999870e-01 -1.874909500000000034e-02 -5.135966899999999669e-02 3.787090500000000332e-02 2.051960300000000015e-01 4.531949999999999867e-02 3.276621200000000289e-02 8.661027500000000046e-02 -1.290725900000000079e-02 1.100006099999999987e-01 1.302200599999999986e-01 7.871743300000000332e-02 5.930084299999999892e-02 7.701588700000000509e-02 1.975518500000000011e-01 1.974583799999999889e-01 7.144843200000000616e-02 8.226656100000000194e-02 1.781826599999999927e-01 1.967167999999999972e-01 1.457534500000000066e-01 2.836074100000000042e-01 3.064466800000000268e-01 1.783892499999999992e-01 3.038183099999999803e-01 4.727294200000000113e-01 3.908592799999999756e-01 4.718497500000000122e-01 5.908838199999999485e-01 6.032331600000000460e-01 6.232160399999999711e-01 6.607226299999999775e-01 6.662508200000000214e-01 7.024642500000000123e-01 6.461388500000000423e-01 6.307964999999999822e-01 6.304908799999999758e-01 6.133625200000000222e-01 6.727368200000000131e-01 5.613686700000000140e-01 5.109414599999999584e-01 5.179692599999999869e-01 4.239557400000000253e-01 4.063616199999999790e-01 4.428438499999999833e-01 4.366646000000000138e-01 4.859700499999999868e-01 4.021850900000000228e-01 3.963386300000000251e-01 4.764412299999999933e-01 5.727656199999999753e-01 7.531920500000000018e-01 8.286430900000000266e-01 1.079476600000000008e+00 1.306348899999999924e+00 1.417135199999999928e+00 1.642299299999999906e+00 1.949348000000000081e+00 2.085750500000000063e+00 1.900362600000000013e+00 1.934056999999999915e+00 1.590927100000000038e+00 1.358945099999999906e+00 1.151383999999999963e+00 9.101481900000000236e-01 6.818555099999999980e-01 2.422485000000000055e-01 -9.891477699999999887e-03 -1.582167999999999908e-01 -3.519183100000000120e-01 -3.484527000000000041e-01 -3.485354399999999742e-01 -3.745343899999999948e-01 -3.453048300000000070e-01 -2.794581600000000110e-01 -3.131171799999999950e-01 -4.193078700000000270e-01 -3.138345499999999899e-01 -2.548711000000000171e-01 -3.330097799999999775e-01 -3.469583700000000159e-01 -3.557004799999999856e-01 -1.483369300000000057e-01 3.913873700000000122e-01 9.502480599999999500e-01 9.662817200000000106e-01 1.045243600000000050e+00 1.273863900000000049e+00 1.230896100000000049e+00 9.870665100000000081e-01 5.521509599999999685e-01 2.806361600000000234e-01 9.983033500000000615e-02 -3.449843300000000057e-01 -1.996420300000000037e+00
1.000000000000000000e+00 -1.302787799999999940e+00 -2.965803800000000212e+00 -3.542091300000000054e+00 -4.582234699999999883e+00 -4.279948100000000366e+00 -3.317408100000000193e+00 -1.850902899999999907e+00 -1.387704599999999955e+00 -9.812151700000000254e-01 -1.593296100000000104e-01 -3.510456900000000213e-02 -5.177469800000000094e-02 1.369898599999999980e-02 -3.608434900000000167e-02 -7.956820300000000401e-02 -9.631741700000000239e-02 -2.192494399999999830e-02 -6.995513000000000425e-02 -5.272001800000000044e-02 -1.358224700000000007e-01 -1.191219200000000061e-01 -1.519545200000000096e-01 -2.052543900000000088e-01 -1.977980199999999911e-01 -2.239262599999999881e-01 -3.121636999999999884e-01 -2.675181999999999838e-01 -2.826143899999999931e-01 -3.487314100000000194e-01 -3.257296700000000267e-01 -3.991430100000000203e-01 -4.589953700000000136e-01 -4.917560500000000001e-01 -4.376923200000000236e-01 -5.321848200000000029e-01 -5.231718600000000441e-01 -5.526576899999999792e-01 -4.356182299999999952e-01 -4.303384299999999940e-01 -4.400404800000000116e-01 -3.817225100000000149e-01 -3.130311399999999855e-01 -1.384752900000000009e-01 -8.009862600000000610e-02 -6.583832100000000520e-02 -1.024256899999999998e-01 4.973886899999999806e-02 2.625738600000000061e-02 1.702772099999999914e-02 3.376708600000000171e-03 2.542340100000000172e-02 6.708808000000000132e-03 -5.329140000000000266e-02 1.627826200000000037e-03 -6.885517100000000668e-02 -4.744377100000000264e-02 -4.235720400000000246e-02 -9.080553199999999436e-02 -7.518618800000000102e-02 -5.559163500000000036e-02 -1.644030399999999933e-02 8.218014899999999401e-02 4.322667699999999807e-02 1.034111900000000001e-01 1.587133699999999925e-01 1.472742700000000127e-01 1.544360999999999928e-01 2.567725000000000146e-01 4.205774899999999983e-01 4.170029399999999886e-01 4.387887100000000262e-01 5.673645699999999570e-01 6.019807700000000539e-01 5.812928200000000434e-01 5.255689199999999950e-01 6.310293599999999836e-01 5.180032100000000472e-01 5.779799500000000201e-01 6.177729800000000271e-01 5.349327600000000071e-01 6.010232599999999481e-01 5.365384899999999790e-01 4.939816000000000207e-01 4.500749199999999894e-01 4.886459699999999851e-01 4.641772000000000120e-01 3.942059900000000061e-01 3.629365600000000192e-01 5.189419299999999957e-01 3.785468200000000061e-01 3.230646699999999982e-01 3.109438199999999819e-01 3.371530899999999886e-01 3.309095799999999810e-01 4.391600500000000240e-01 3.850764600000000093e-01 3.364806900000000267e-01 3.931423299999999843e-01 4.467653400000000108e-01 4.599920599999999804e-01 5.788753599999999500e-01 7.408160900000000382e-01 8.245004000000000222e-01 1.103430399999999922e+00 1.375986099999999990e+00 1.259394300000000078e+00 9.954205099999999806e-01 7.073140900000000064e-01 5.751188499999999593e-01 6.085135999999999878e-01 5.512039699999999876e-01 5.885390299999999630e-01 5.788059500000000135e-01 3.474885999999999808e-01 4.733947499999999892e-02 -1.060543399999999969e-01 -1.063433200000000051e-01 -1.183998299999999976e-01 -1.136129099999999975e-01 -1.126281699999999997e-01 -1.333355300000000077e-01 -5.252545699999999762e-02 -1.749855300000000002e-02 -2.452802899999999980e-02 -5.142704499999999762e-02 -7.090096099999999846e-02 -3.629909900000000047e-03 6.756289999999999518e-02 1.888874899999999912e-01 7.784735799999999983e-01 1.817239700000000013e+00 2.323134000000000032e+00 2.455894400000000033e+00 2.816664499999999904e+00 2.326341999999999910e+00 7.906591600000000275e-01 -7.886986900000000356e-01 -1.521896300000000091e+00 -1.380840999999999985e+00 -2.202542400000000011e+00
1.000000000000000000e+00 1.413331300000000068e+00 -5.530873899999999566e-01 -2.885881200000000035e+00 -4.176072399999999796e+00 -4.003343799999999675e+00 -3.618160399999999832e+00 -2.699070700000000045e+00 -1.730393099999999906e+00 -1.501444299999999954e+00 -9.298600399999999988e-01 -3.853742600000000240e-01 -4.274879400000000107e-01 -3.643682300000000152e-01 -3.255256599999999945e-01 -3.510445500000000107e-01 -3.443599600000000205e-01 -3.349377299999999891e-01 -3.556678799999999918e-01 -3.839718100000000245e-01 -4.106576599999999799e-01 -4.545333200000000184e-01 -4.776810300000000065e-01 -5.310422000000000198e-01 -5.006804999999999728e-01 -5.014595600000000264e-01 -5.814395199999999875e-01 -6.341993299999999500e-01 -7.127808199999999816e-01 -6.917628200000000005e-01 -6.562369000000000119e-01 -7.514543500000000487e-01 -7.473223700000000136e-01 -9.459676900000000277e-01 -1.020993199999999934e+00 -9.466076500000000227e-01 -1.002799400000000007e+00 -1.006148899999999902e+00 -9.349434500000000092e-01 -9.038066300000000552e-01 -8.842227099999999673e-01 -7.747739000000000154e-01 -7.168396799999999791e-01 -5.935816400000000215e-01 -5.359872900000000051e-01 -4.596710299999999805e-01 -3.111681099999999978e-01 -2.394539400000000040e-01 -1.509229199999999882e-01 -1.409918400000000072e-01 -1.246809799999999968e-01 -6.774276699999999540e-02 5.992505900000000274e-02 3.594380099999999745e-02 7.805731500000000211e-02 1.449764100000000000e-01 2.681356099999999965e-02 1.641773300000000102e-01 1.763353000000000004e-01 2.109036900000000048e-01 1.868169399999999869e-01 1.638310000000000044e-01 2.696826600000000185e-01 3.368407999999999958e-01 2.902773200000000053e-01 2.779391800000000079e-01 2.398908800000000008e-01 3.341859999999999831e-01 3.362406499999999743e-01 4.090530299999999841e-01 5.290238000000000440e-01 5.029406600000000394e-01 6.227771600000000518e-01 6.644375099999999534e-01 6.161178999999999961e-01 7.404094500000000245e-01 6.288272599999999990e-01 5.769767900000000171e-01 5.526864400000000010e-01 5.158909200000000306e-01 5.730100200000000088e-01 4.600088800000000089e-01 5.115474100000000357e-01 4.767892499999999978e-01 4.521230399999999761e-01 4.811164700000000183e-01 4.452992800000000195e-01 3.832673400000000119e-01 3.675470800000000260e-01 3.457286600000000210e-01 3.778123099999999845e-01 3.002619499999999997e-01 2.597213899999999964e-01 4.013948999999999989e-01 4.101582999999999757e-01 4.784466399999999786e-01 5.168074000000000279e-01 7.075874199999999670e-01 8.641619099999999776e-01 9.347285100000000124e-01 1.044733399999999923e+00 1.342780700000000049e+00 1.553249399999999891e+00 1.735926999999999998e+00 1.774542199999999958e+00 1.678865599999999958e+00 1.487547200000000069e+00 1.352942400000000100e+00 1.173793899999999946e+00 9.429665499999999589e-01 6.987828099999999765e-01 3.421209700000000242e-01 -2.989417600000000147e-02 -2.502487800000000040e-01 -3.220257699999999890e-01 -4.002609300000000148e-01 -4.169404800000000022e-01 -4.004678899999999930e-01 -3.987800899999999760e-01 -3.042672599999999838e-01 -2.936196300000000203e-01 -3.393492900000000256e-01 -2.147088900000000133e-01 -3.570268500000000067e-01 -2.758865699999999976e-01 -2.005215800000000048e-01 -1.519703900000000107e-01 -2.576065200000000055e-01 -1.881362500000000049e-01 2.308242000000000071e-01 7.390078100000000427e-01 8.639256100000000105e-01 8.728161100000000339e-01 1.336197300000000032e+00 1.600766799999999934e+00 1.675169899999999990e+00 1.426837200000000028e+00 1.508072700000000044e+00 1.980624099999999999e+00 1.679430900000000060e+00 -3.104360999999999926e-01
2.000000000000000000e+00 1.335635700000000092e+00 1.322282900000000039e+00 1.196049499999999988e+00 7.469050499999999593e-01 2.110248299999999966e-01 -3.649623900000000254e-01 -6.316623999999999572e-01 -9.199255100000000018e-01 -1.220692399999999900e+00 -1.365709400000000073e+00 -1.439836300000000069e+00 -1.277980399999999905e+00 -9.270275399999999832e-01 -5.622222199999999948e-01 -3.041923500000000002e-01 -1.808109300000000086e-01 -1.669736599999999960e-01 -1.130807499999999938e-01 1.554943500000000034e-01 4.559187100000000048e-01 6.212136600000000008e-01 6.637974800000000508e-01 6.167288899999999741e-01 5.855137599999999942e-01 5.508418099999999873e-01 5.135745999999999922e-01 5.326733000000000162e-01 5.923094599999999543e-01 6.083522000000000096e-01 5.373615899999999446e-01 5.440151399999999526e-01 5.747220199999999446e-01 4.992684199999999906e-01 4.670555399999999913e-01 4.888724199999999742e-01 4.837551399999999724e-01 4.951678700000000100e-01 4.821234400000000142e-01 4.521632199999999768e-01 4.684384699999999957e-01 4.727780100000000263e-01 5.108247999999999678e-01 4.883595000000000019e-01 4.345890199999999925e-01 5.004965500000000400e-01 4.504369100000000237e-01 3.703779799999999955e-01 3.881885199999999814e-01 3.597823800000000127e-01 3.458183799999999808e-01 3.397145999999999777e-01 3.133055100000000093e-01 3.185207199999999794e-01 3.279990600000000089e-01 2.944194700000000164e-01 2.840781600000000240e-01 3.217012499999999942e-01 2.748744799999999766e-01 2.172605999999999982e-01 2.411776999999999949e-01 2.172496899999999953e-01 1.503628999999999938e-01 1.376024999999999887e-01 1.965581100000000081e-01 2.186925000000000119e-01 1.414040000000000019e-01 9.731323699999999688e-02 1.127109399999999956e-01 1.184185700000000008e-01 1.150922000000000056e-01 8.066457400000000277e-02 5.654929499999999942e-02 1.206107500000000027e-01 1.684007499999999879e-01 1.392582699999999896e-01 9.575774500000000522e-02 9.343370500000000578e-02 1.443675600000000059e-01 1.391168999999999878e-01 1.169065799999999961e-01 1.606938400000000045e-01 1.702034600000000009e-01 1.724127900000000102e-01 2.516322200000000175e-01 3.185327000000000019e-01 3.327191500000000191e-01 3.650923799999999941e-01 3.848861299999999930e-01 3.629654900000000017e-01 3.988199800000000184e-01 5.110826600000000219e-01 5.577431999999999945e-01 5.249721099999999918e-01 5.423498199999999825e-01 5.861210399999999821e-01 5.982686400000000182e-01 6.171020900000000475e-01 6.287925800000000454e-01 6.137383699999999775e-01 6.267803699999999756e-01 6.662615699999999697e-01 6.594093300000000157e-01 6.667670100000000488e-01 6.879469900000000360e-01 6.110217700000000196e-01 5.611862699999999871e-01 6.251833100000000476e-01 6.666263300000000447e-01 6.646578800000000342e-01 6.531098199999999521e-01 6.596629800000000099e-01 7.370868799999999998e-01 6.595581200000000255e-01 5.038799600000000156e-01 5.122278000000000109e-01 3.957293800000000195e-01 2.574972600000000056e-01 2.968849299999999913e-01 2.870039799999999919e-01 1.870205899999999866e-01 3.410691899999999943e-02 -1.073749299999999934e-01 -2.014983499999999927e-01 -3.437204999999999844e-01 -6.152703499999999659e-01 -8.352114800000000061e-01 -8.693158699999999905e-01 -1.053953700000000104e+00 -1.390175900000000020e+00 -1.724645900000000065e+00 -2.220499499999999848e+00 -2.777117300000000011e+00 -3.197065900000000127e+00 -3.595905300000000082e+00 -3.852386599999999994e+00 -4.106008600000000008e+00 -3.900671099999999836e+00 -2.757268100000000111e+00 -2.188156699999999955e+00 -6.228496700000000219e-01
1.000000000000000000e+00 -1.761334599999999917e-01 -2.147022199999999881e+00 -3.237068499999999904e+00 -4.303591899999999804e+00 -3.881779299999999822e+00 -2.800090500000000038e+00 -1.897280999999999995e+00 -1.821047700000000047e+00 -1.040216800000000053e+00 -5.348994700000000435e-01 -5.626760299999999937e-01 -5.837083699999999764e-01 -6.191260600000000336e-01 -5.336596999999999591e-01 -5.277542200000000516e-01 -6.010147399999999918e-01 -5.041902900000000409e-01 -5.492531299999999783e-01 -5.476983100000000215e-01 -5.275808400000000509e-01 -6.000797100000000439e-01 -6.357816499999999760e-01 -4.877513600000000227e-01 -6.409491400000000283e-01 -6.006331299999999596e-01 -6.522688800000000509e-01 -7.959612299999999641e-01 -7.355034999999999767e-01 -7.788318199999999525e-01 -7.953016299999999816e-01 -8.880758600000000502e-01 -9.101973700000000056e-01 -9.858325700000000191e-01 -9.845795099999999911e-01 -1.000887599999999988e+00 -1.023170200000000030e+00 -1.054605400000000026e+00 -1.036718400000000040e+00 -9.760005099999999878e-01 -1.057590699999999995e+00 -8.936436599999999508e-01 -9.360116699999999623e-01 -7.237831099999999518e-01 -7.022328799999999482e-01 -6.058760499999999993e-01 -4.941400300000000079e-01 -3.948422300000000162e-01 -2.407636499999999957e-01 -2.245844300000000016e-01 -1.397116200000000086e-01 -1.620713300000000134e-01 -1.114675700000000019e-01 -1.251634399999999869e-01 -8.231773300000000404e-02 -7.814295300000000111e-02 7.265765700000000049e-02 5.750611299999999759e-02 2.653441100000000080e-02 4.569651699999999900e-02 1.111973400000000056e-01 1.543771999999999922e-01 7.470350200000000496e-02 1.428153600000000023e-01 2.160712599999999872e-01 1.762451200000000051e-01 2.863182400000000016e-01 2.801323800000000142e-01 3.224605899999999914e-01 4.667802799999999919e-01 4.915552599999999939e-01 4.814277200000000034e-01 5.486708300000000538e-01 5.570999599999999496e-01 6.001246799999999659e-01 6.460862000000000549e-01 6.339310000000000223e-01 7.022640799999999572e-01 6.789220500000000547e-01 6.866901600000000494e-01 7.192836900000000311e-01 6.630296199999999862e-01 7.133374300000000501e-01 5.960983199999999593e-01 7.065342199999999906e-01 5.760319099999999803e-01 6.070341000000000209e-01 6.505363400000000462e-01 5.499575599999999564e-01 5.709113300000000502e-01 4.869537099999999841e-01 5.904192799999999908e-01 4.758545499999999873e-01 4.701345499999999844e-01 4.740753999999999801e-01 5.115724999999999856e-01 4.355681800000000270e-01 4.652401800000000032e-01 5.841804999999999914e-01 6.960955500000000074e-01 9.545417600000000169e-01 1.202127200000000062e+00 1.387020900000000001e+00 1.401378999999999930e+00 1.669261600000000012e+00 1.855059699999999978e+00 2.012052100000000010e+00 1.931448000000000054e+00 1.917192800000000030e+00 1.758760300000000054e+00 1.488499900000000098e+00 1.305120199999999953e+00 1.048086099999999909e+00 6.976741600000000432e-01 3.041758900000000043e-01 2.438985899999999984e-02 -2.742368200000000131e-02 -1.040829800000000055e-01 -4.227625100000000080e-02 8.624480099999999941e-03 6.091726300000000101e-03 -3.164343000000000017e-02 -1.357740299999999900e-01 -2.549088899999999921e-02 -3.346409899999999715e-02 -3.417498599999999748e-02 1.462651899999999928e-02 -6.251044000000000045e-02 1.067247699999999966e-01 1.527367500000000045e-01 1.598562699999999948e-01 5.397076499999999832e-01 1.295706100000000083e+00 1.367377300000000018e+00 1.148007000000000000e+00 1.009483600000000036e+00 7.335392099999999971e-01 7.133598500000000175e-01 5.565466399999999814e-01 1.096364700000000081e+00 5.794470800000000033e-01
1.000000000000000000e+00 -4.587830999999999992e-01 -2.808594700000000000e+00 -4.179506499999999569e+00 -4.648826299999999634e+00 -4.031641600000000381e+00 -3.148031500000000094e+00 -2.024368400000000179e+00 -1.644839200000000057e+00 -1.407930399999999915e+00 -4.928979199999999894e-01 -2.541906199999999783e-01 -3.038003899999999757e-01 -1.995758499999999991e-01 -2.575112800000000091e-01 -2.370886100000000052e-01 -3.385852200000000201e-01 -3.648824299999999798e-01 -3.093433099999999825e-01 -3.166020600000000185e-01 -3.236121800000000270e-01 -3.298894700000000180e-01 -4.133362999999999898e-01 -4.361808500000000088e-01 -4.985627400000000042e-01 -5.303422800000000548e-01 -5.494357300000000111e-01 -5.513644599999999452e-01 -6.293078199999999622e-01 -5.683040799999999892e-01 -6.720565200000000461e-01 -7.036817600000000450e-01 -6.964950100000000255e-01 -7.314747499999999514e-01 -7.622745199999999555e-01 -8.294203599999999676e-01 -8.760093799999999487e-01 -7.089110699999999765e-01 -6.921304600000000029e-01 -6.679635200000000328e-01 -6.132698300000000158e-01 -5.772114200000000306e-01 -4.115404599999999968e-01 -4.487795600000000218e-01 -3.394730699999999879e-01 -2.790553599999999745e-01 -1.860240900000000031e-01 -4.731238200000000005e-02 -2.331135299999999907e-03 2.699100200000000005e-02 4.646654199999999957e-02 6.106343499999999924e-02 1.238892699999999958e-01 1.234661600000000053e-01 1.517455900000000135e-01 1.373086099999999976e-01 5.475466300000000203e-02 1.541560600000000114e-01 1.182279600000000069e-01 4.504844899999999736e-02 1.410724200000000039e-01 9.978318399999999699e-02 1.785414300000000010e-01 1.929872900000000058e-01 1.986554100000000045e-01 3.770205300000000204e-01 2.948415899999999867e-01 3.110020099999999954e-01 4.147410200000000158e-01 4.302601999999999816e-01 4.971646200000000015e-01 5.276151399999999825e-01 6.039803299999999542e-01 6.621407599999999949e-01 7.733645300000000500e-01 6.978563100000000352e-01 7.649200200000000338e-01 6.965696399999999899e-01 6.386705700000000485e-01 6.775786700000000495e-01 6.498046299999999942e-01 6.392319600000000435e-01 5.324961499999999459e-01 5.183959900000000287e-01 4.930689400000000111e-01 5.352519399999999816e-01 4.755642400000000269e-01 4.526809700000000158e-01 4.881046600000000235e-01 3.994751200000000169e-01 3.556832999999999800e-01 3.412578499999999737e-01 3.640963999999999867e-01 3.625219700000000267e-01 3.229283700000000201e-01 3.376021799999999740e-01 3.985473099999999880e-01 4.230031899999999734e-01 6.688450000000000228e-01 8.838790300000000100e-01 1.038559299999999963e+00 1.091242400000000057e+00 1.240528300000000028e+00 1.438374000000000041e+00 1.636913700000000027e+00 1.592990700000000093e+00 1.449305999999999983e+00 1.376946000000000003e+00 1.173959500000000045e+00 9.782069799999999482e-01 7.951183400000000345e-01 5.595416600000000518e-01 4.881508700000000145e-01 2.655869699999999778e-01 -1.214976900000000054e-01 -2.006791199999999886e-01 -2.733467700000000167e-01 -2.640168299999999801e-01 -2.494277299999999864e-01 -2.369619000000000031e-01 -2.860279499999999753e-01 -2.927761799999999970e-01 -2.976140400000000241e-01 -2.632202399999999942e-01 -2.969191600000000153e-01 -2.689557100000000145e-01 -2.945456100000000133e-01 -3.584650400000000126e-01 -2.134808199999999878e-01 -1.660874099999999909e-01 7.806057299999999421e-02 7.679075600000000446e-01 1.297206199999999976e+00 1.342977599999999994e+00 1.721351700000000040e+00 2.037800299999999787e+00 1.748618800000000029e+00 1.230510800000000016e+00 5.812420299999999651e-01 6.911007799999999701e-01 1.002482400000000023e-01
1.000000000000000000e+00 4.704161199999999654e-02 -2.486569300000000204e+00 -3.896595399999999820e+00 -4.114494099999999932e+00 -3.839746599999999788e+00 -3.273975300000000033e+00 -2.167717500000000186e+00 -1.457473199999999913e+00 -1.302844099999999949e+00 -4.917404499999999956e-01 -1.385980500000000004e-01 -2.774425600000000047e-01 -2.372871199999999903e-01 -2.109707200000000005e-01 -2.495948799999999912e-01 -2.304035700000000020e-01 -1.815392399999999906e-01 -2.283473400000000098e-01 -2.978117699999999757e-01 -2.499535499999999966e-01 -2.248954200000000125e-01 -2.956515699999999747e-01 -3.086709300000000100e-01 -2.865631200000000045e-01 -4.480883900000000031e-01 -4.118925900000000029e-01 -4.885871199999999859e-01 -5.124950000000000339e-01 -6.005431399999999753e-01 -5.631232699999999536e-01 -7.454140099999999602e-01 -6.976168499999999550e-01 -7.592128299999999497e-01 -7.972253400000000045e-01 -7.242437900000000539e-01 -8.243828899999999793e-01 -8.156624099999999489e-01 -8.337023199999999967e-01 -8.225518000000000551e-01 -8.003261999999999876e-01 -7.595799600000000540e-01 -6.776241899999999596e-01 -6.226776400000000322e-01 -5.202320400000000067e-01 -3.686321200000000076e-01 -3.477375799999999906e-01 -3.435565199999999764e-01 -2.421110099999999876e-01 -1.034476899999999949e-01 -1.280701099999999870e-01 2.678369099999999836e-02 -1.223381299999999963e-02 2.283413700000000088e-02 2.715338299999999969e-03 -3.668604500000000046e-02 6.885212899999999803e-02 5.329258700000000237e-02 1.039794700000000044e-01 7.238647800000000410e-02 1.256066800000000053e-02 1.069063100000000044e-01 1.665963199999999922e-01 9.555412500000000364e-02 2.555813000000000113e-01 1.616247399999999890e-01 2.229561999999999933e-01 3.025259900000000224e-01 2.745433099999999849e-01 3.821658700000000186e-01 3.358648499999999926e-01 2.988586400000000087e-01 3.925930300000000095e-01 4.559831400000000090e-01 3.895922299999999838e-01 4.589820900000000092e-01 4.735881399999999908e-01 5.056203099999999617e-01 4.812887100000000085e-01 5.207036299999999729e-01 4.597113800000000028e-01 5.775752100000000056e-01 4.718465199999999915e-01 4.304746300000000248e-01 4.846239600000000203e-01 4.550751100000000049e-01 4.406563700000000194e-01 3.495115899999999831e-01 4.675807699999999789e-01 5.529382999999999937e-01 4.163006699999999838e-01 4.191804900000000167e-01 4.150852500000000167e-01 3.764123899999999856e-01 3.899198999999999860e-01 4.844355799999999768e-01 5.457496600000000253e-01 8.380726299999999851e-01 7.498195300000000119e-01 8.989800199999999908e-01 1.357877999999999918e+00 1.619490799999999897e+00 1.956654799999999916e+00 2.086224399999999868e+00 2.193043299999999807e+00 1.978127900000000050e+00 1.726176500000000003e+00 1.579156800000000027e+00 1.226805600000000052e+00 9.604243500000000378e-01 6.259678300000000029e-01 2.285743500000000095e-01 -8.798334900000000236e-02 -1.045968699999999946e-01 -1.763694299999999937e-01 -2.456602599999999914e-01 -2.995498799999999906e-01 -3.653149700000000166e-01 -3.175467799999999730e-01 -2.431483000000000116e-01 -2.897431999999999785e-01 -2.667333900000000146e-01 -2.619798600000000088e-01 -3.598232499999999834e-01 -1.786322100000000135e-01 -2.565907299999999891e-01 -1.963589599999999991e-01 -1.489996399999999888e-01 -7.482971500000000498e-02 2.191785900000000065e-01 8.117138499999999590e-01 1.006267299999999976e+00 9.388096599999999903e-01 1.272976300000000061e+00 1.365351699999999946e+00 1.302641600000000066e+00 1.083096199999999953e+00 1.372677099999999983e+00 1.758194100000000093e+00 1.095157200000000053e+00 -1.350109999999999921e+00
1.000000000000000000e+00 1.665162400000000043e+00 -1.876701799999999976e+00 -4.007871100000000020e+00 -4.702600399999999681e+00 -3.747377699999999923e+00 -2.803137599999999896e+00 -1.393565200000000059e+00 -9.740733799999999887e-01 -7.625835600000000492e-01 2.710466599999999948e-01 7.903566100000000150e-01 6.300697299999999945e-01 5.442832800000000359e-01 6.459866100000000166e-01 6.291634000000000393e-01 4.786900800000000178e-01 4.472417899999999724e-01 3.317638500000000268e-01 4.165581999999999896e-01 3.070683699999999794e-01 1.988611700000000038e-01 1.974469199999999980e-01 9.535719099999999393e-02 1.068566999999999989e-01 -2.686620199999999875e-02 -8.909224200000000204e-02 -9.473448800000000558e-02 -1.941758899999999899e-01 -1.993862100000000082e-01 -4.442212999999999856e-01 -4.575421499999999808e-01 -4.057020399999999860e-01 -4.991025399999999834e-01 -5.496390500000000179e-01 -6.185154999999999959e-01 -6.373954099999999956e-01 -6.064043700000000259e-01 -5.890379999999999505e-01 -6.643892799999999710e-01 -7.340167300000000061e-01 -7.205622099999999808e-01 -6.580663700000000116e-01 -5.528757399999999489e-01 -4.875610899999999748e-01 -3.759452899999999875e-01 -2.826335600000000059e-01 -1.489918899999999879e-01 -1.042453500000000005e-01 -1.405376399999999984e-02 2.003926799999999897e-03 1.060341399999999989e-01 9.918896900000000183e-02 4.190543299999999888e-02 -3.713738899999999982e-02 6.154122800000000337e-02 6.296138900000000649e-02 1.131287100000000038e-02 1.165976700000000005e-01 1.372621099999999927e-01 1.090960599999999947e-01 9.125906100000000243e-02 1.407530200000000065e-01 2.322246400000000099e-01 3.584517699999999890e-02 1.989211399999999963e-01 2.360773399999999966e-01 3.606301599999999774e-01 3.723544799999999877e-01 4.521830800000000150e-01 5.825136600000000442e-01 5.630430800000000291e-01 7.215886299999999531e-01 6.710691899999999821e-01 7.920672800000000402e-01 7.767480300000000337e-01 7.607202600000000370e-01 8.217724699999999771e-01 7.834742900000000176e-01 8.545071800000000328e-01 8.691858799999999663e-01 7.308761900000000367e-01 6.436355700000000457e-01 6.784349899999999600e-01 5.044925999999999577e-01 5.230130100000000004e-01 4.458947100000000274e-01 3.716946799999999995e-01 2.842595399999999772e-01 3.453012200000000198e-01 2.351089799999999952e-01 1.611278799999999942e-02 7.381647299999999357e-02 7.341310099999999450e-02 -7.306104900000000291e-02 -2.409552100000000169e-02 -9.073013700000000237e-02 9.030926400000000021e-02 1.887255399999999972e-01 5.182787500000000103e-01 7.224851599999999596e-01 9.020394699999999544e-01 1.082660399999999967e+00 1.315120199999999961e+00 1.695804300000000042e+00 1.821544000000000052e+00 1.668131199999999925e+00 1.632719199999999926e+00 1.427812099999999917e+00 1.085211300000000101e+00 8.395007899999999967e-01 4.552556300000000222e-01 2.236610699999999896e-01 -2.520490200000000125e-01 -5.993774400000000391e-01 -7.784315800000000118e-01 -8.886389199999999988e-01 -8.955197999999999769e-01 -9.381160400000000399e-01 -1.088228500000000043e+00 -1.031018800000000013e+00 -9.498464500000000088e-01 -1.048599899999999918e+00 -9.195231099999999769e-01 -9.844600999999999491e-01 -9.314739800000000347e-01 -9.691509299999999660e-01 -1.071281600000000056e+00 -9.129014199999999635e-01 -9.503134300000000145e-01 -6.748503900000000222e-01 1.128321399999999974e-01 9.487135199999999768e-01 1.300584500000000032e+00 1.696401400000000059e+00 2.231342699999999901e+00 1.776272899999999932e+00 8.554228600000000071e-01 -3.616230200000000172e-01 -2.238458799999999971e-01 -1.220295499999999977e+00
2.000000000000000000e+00 -8.772385300000000441e-02 -5.619699299999999509e-01 -8.234476600000000257e-01 -1.364290199999999897e+00 -1.520939800000000064e+00 -1.783142800000000028e+00 -2.066312799999999950e+00 -2.032018900000000183e+00 -1.934121900000000061e+00 -1.788134899999999972e+00 -1.408050100000000082e+00 -8.876155500000000309e-01 -4.619527900000000020e-01 -3.223009299999999855e-01 -2.678496000000000210e-01 -4.271272999999999737e-02 1.627923300000000129e-01 2.995160800000000179e-01 4.126113100000000089e-01 4.128758000000000150e-01 3.323799599999999743e-01 2.887980800000000126e-01 2.992811200000000116e-01 3.107226200000000049e-01 3.419428700000000099e-01 3.173762600000000211e-01 2.637602900000000083e-01 3.515399699999999794e-01 3.989066099999999948e-01 3.785416799999999915e-01 3.923947999999999880e-01 3.211682000000000148e-01 3.067724199999999901e-01 3.912043499999999785e-01 4.276397800000000249e-01 4.374059200000000036e-01 4.280787400000000131e-01 4.184324600000000061e-01 4.251098400000000166e-01 3.720619000000000010e-01 2.723651300000000108e-01 2.286976500000000023e-01 2.414241000000000026e-01 2.790267300000000006e-01 3.076654400000000122e-01 3.173762600000000211e-01 3.426392300000000168e-01 3.488628799999999863e-01 3.102714500000000042e-01 2.624163999999999941e-01 2.423577199999999987e-01 2.964785400000000126e-01 3.595415900000000220e-01 3.212776099999999913e-01 3.334272999999999820e-01 3.773910899999999846e-01 2.925293700000000108e-01 2.733008900000000185e-01 3.279379199999999939e-01 3.581407300000000182e-01 4.224022100000000002e-01 4.428043199999999735e-01 4.305453899999999723e-01 4.497075999999999851e-01 4.512735900000000022e-01 4.524096300000000070e-01 4.588883500000000004e-01 4.228052099999999869e-01 4.083593500000000098e-01 4.296917599999999782e-01 4.824170400000000192e-01 5.753249400000000069e-01 5.808737999999999957e-01 5.499784399999999573e-01 5.834213299999999602e-01 5.874430000000000485e-01 5.694414800000000554e-01 6.058565900000000282e-01 6.570733300000000110e-01 6.793316799999999933e-01 6.324541200000000085e-01 5.615431699999999804e-01 5.837522499999999726e-01 6.081433800000000112e-01 6.042294200000000171e-01 6.024467000000000017e-01 5.522536700000000298e-01 5.516638000000000375e-01 5.848315499999999778e-01 5.680212300000000436e-01 5.724392900000000450e-01 5.463570300000000213e-01 4.967534499999999853e-01 5.920987599999999462e-01 6.400968299999999500e-01 5.424318700000000382e-01 5.361202000000000467e-01 5.349617300000000242e-01 5.063222899999999527e-01 5.627208900000000291e-01 6.324541200000000085e-01 6.745918899999999718e-01 6.626585099999999784e-01 5.999293399999999776e-01 5.474601599999999735e-01 5.124244599999999705e-01 5.064656199999999497e-01 5.428383100000000461e-01 5.701500999999999930e-01 6.219729400000000297e-01 6.924689499999999720e-01 6.766990800000000084e-01 6.370170299999999841e-01 6.315675499999999776e-01 5.848974500000000409e-01 4.824170400000000192e-01 4.188750399999999763e-01 5.000438600000000067e-01 6.251923200000000236e-01 5.478581599999999829e-01 3.473836699999999778e-01 1.908306499999999906e-01 -6.784438600000000652e-02 -3.272291800000000084e-01 -3.390297500000000186e-01 -2.677683499999999883e-01 -3.227701199999999937e-01 -4.982590399999999864e-01 -8.439767500000000533e-01 -1.390121600000000068e+00 -1.993194700000000097e+00 -2.570063300000000162e+00 -3.189990100000000162e+00 -3.882182300000000197e+00 -4.099064900000000122e+00 -3.853654500000000205e+00 -3.176873099999999894e+00 -2.067276199999999786e+00 -1.676142199999999916e+00 -4.923032600000000203e-01
1.000000000000000000e+00 -9.435444600000000293e-01 -2.474988900000000047e+00 -4.040756400000000248e+00 -4.569895800000000285e+00 -4.263284600000000424e+00 -3.599468299999999843e+00 -2.205753599999999981e+00 -1.441561300000000045e+00 -1.208458199999999927e+00 -4.990012799999999915e-01 2.253358100000000044e-02 5.602297299999999675e-02 4.426164500000000397e-03 4.864869599999999822e-02 6.305166500000000673e-02 1.272595300000000096e-01 5.380465000000000247e-02 4.743101200000000156e-02 7.563422799999999779e-02 2.383431999999999912e-02 5.722103900000000132e-02 -6.519530699999999401e-02 -1.041296899999999970e-01 -1.579211599999999840e-02 -1.100478899999999954e-01 -9.498939900000000214e-02 -1.469604300000000030e-01 -2.350657399999999952e-01 -2.389058300000000135e-01 -3.657430199999999743e-01 -3.078123099999999779e-01 -3.086608399999999919e-01 -3.650478200000000228e-01 -5.147382000000000346e-01 -5.101932900000000215e-01 -5.169401200000000030e-01 -4.557286799999999971e-01 -3.761237000000000053e-01 -4.167734900000000242e-01 -3.860616299999999890e-01 -3.081620199999999810e-01 -2.432775799999999933e-01 -2.680401099999999981e-01 -1.075579799999999975e-01 6.249985799999999841e-02 1.066923399999999966e-01 1.047301199999999960e-01 1.770429299999999873e-01 2.667219800000000252e-01 3.024445299999999892e-01 2.909140399999999849e-01 2.058193299999999948e-01 2.757593300000000247e-01 1.492828200000000105e-01 1.517462599999999939e-01 2.557912099999999911e-01 1.117108599999999952e-01 2.259678499999999979e-01 2.591525499999999815e-01 1.714894600000000102e-01 2.253751599999999911e-01 1.793540600000000096e-01 2.422987699999999966e-01 3.204108999999999985e-01 2.973576700000000184e-01 2.286762800000000095e-01 3.745273399999999864e-01 3.829611299999999829e-01 5.013778300000000243e-01 4.629199700000000139e-01 4.400013300000000238e-01 6.187511799999999562e-01 5.487966399999999467e-01 6.217466000000000381e-01 6.352980900000000375e-01 7.071611100000000372e-01 7.194709700000000430e-01 6.611181900000000500e-01 6.904213799999999734e-01 6.402677100000000454e-01 5.952937700000000554e-01 6.437006199999999456e-01 7.415629900000000330e-01 6.886044099999999446e-01 7.301532800000000156e-01 5.870501299999999478e-01 5.286486099999999633e-01 5.445966300000000260e-01 4.903813699999999831e-01 3.949017699999999853e-01 3.357109200000000238e-01 4.570318600000000120e-01 5.241682800000000420e-01 7.094481500000000551e-01 9.316509299999999882e-01 1.090561799999999915e+00 1.141990899999999920e+00 1.274391800000000075e+00 1.450474299999999994e+00 1.598792699999999956e+00 1.833845500000000017e+00 1.685447300000000093e+00 1.560532699999999995e+00 1.551673199999999975e+00 1.375753299999999957e+00 1.282618199999999931e+00 1.052231499999999986e+00 7.870368800000000498e-01 6.161216299999999757e-01 8.992925100000000171e-02 -2.979403400000000257e-01 -4.557060099999999947e-01 -4.458379900000000173e-01 -5.522417200000000470e-01 -5.193948600000000138e-01 -6.078149000000000468e-01 -5.936664999999999859e-01 -6.263417199999999907e-01 -6.183863800000000133e-01 -6.144402599999999603e-01 -6.838516799999999618e-01 -6.206456200000000090e-01 -5.866174400000000455e-01 -6.384638900000000339e-01 -6.786304699999999857e-01 -6.083400100000000421e-01 -2.989949000000000079e-01 6.295379399999999348e-02 5.362446800000000291e-01 5.288318300000000027e-01 4.258056900000000145e-01 4.520884199999999908e-01 3.925113299999999916e-01 2.309061199999999925e-01 2.681886600000000231e-01 3.668877099999999780e-01 6.598610299999999595e-01 3.300952500000000067e-01 -8.282397200000000126e-01 -2.760390500000000191e+00
2.000000000000000000e+00 -2.293017599999999934e-01 -1.620364600000000044e+00 -2.413954500000000003e+00 -2.874292300000000022e+00 -2.771543900000000171e+00 -2.836014700000000222e+00 -2.679497000000000018e+00 -2.557506899999999916e+00 -1.883358700000000052e+00 -1.317322399999999893e+00 -1.041193800000000058e+00 -8.863166599999999784e-01 -7.694651300000000527e-01 -6.430987200000000126e-01 -3.180970000000000186e-01 6.343988400000000194e-02 1.701291000000000053e-01 1.642242299999999988e-01 1.808749799999999908e-01 1.599231299999999967e-01 1.916824199999999923e-01 2.166700400000000082e-01 1.785258799999999979e-01 2.762988800000000245e-01 2.745310699999999882e-01 1.854239099999999973e-01 2.082411799999999980e-01 2.001977100000000009e-01 2.202279000000000042e-01 2.236079199999999878e-01 2.059744199999999914e-01 2.059976400000000096e-01 2.626797200000000054e-01 2.231873900000000133e-01 1.473673600000000028e-01 2.005650900000000014e-01 1.904288000000000092e-01 9.514404199999999812e-02 1.105418499999999971e-01 2.155847599999999864e-01 1.861305400000000110e-01 1.301083000000000101e-01 1.159287199999999990e-01 1.308279599999999931e-01 1.010627800000000048e-01 5.866183999999999982e-02 7.787759700000000673e-02 5.721388300000000010e-02 7.846359099999999920e-02 5.972362700000000135e-02 9.009781199999999934e-02 7.655820400000000470e-02 2.639113499999999959e-02 4.606235000000000190e-02 3.390246899999999758e-02 1.517174200000000021e-02 1.589623700000000056e-02 2.198363399999999843e-02 -2.372144799999999915e-02 2.304896400000000165e-02 1.696272899999999931e-02 -3.216171200000000202e-02 6.627569499999999558e-02 9.149396099999999865e-02 5.915629199999999921e-02 9.962201699999999327e-02 1.172886000000000067e-01 1.674051699999999920e-01 2.082355800000000035e-01 1.838058899999999996e-01 1.926481399999999955e-01 2.149459400000000020e-01 2.993566300000000124e-01 3.687638799999999883e-01 3.417832800000000226e-01 3.427569300000000152e-01 3.725924999999999931e-01 4.829621599999999737e-01 5.122581999999999969e-01 4.766806000000000099e-01 5.486179399999999706e-01 5.190445900000000279e-01 4.401436000000000237e-01 4.975851299999999866e-01 5.675917299999999610e-01 6.087683900000000481e-01 5.690601699999999763e-01 5.154648400000000352e-01 5.895977599999999708e-01 6.481214199999999481e-01 6.159892500000000437e-01 6.184629499999999558e-01 6.557836299999999508e-01 6.703434799999999916e-01 6.704604100000000066e-01 6.848818199999999745e-01 7.231003299999999578e-01 7.571410400000000429e-01 7.781508499999999495e-01 6.766981100000000193e-01 6.479778499999999664e-01 7.429185499999999553e-01 6.839464200000000549e-01 6.868532699999999602e-01 7.702500300000000300e-01 7.558525299999999669e-01 7.773791599999999580e-01 8.076130799999999832e-01 8.404431799999999564e-01 9.222859900000000000e-01 9.012753900000000096e-01 8.544026300000000518e-01 8.945223900000000006e-01 8.998036400000000157e-01 8.860757599999999901e-01 9.480664199999999653e-01 9.239931099999999509e-01 7.603006199999999826e-01 6.099669599999999470e-01 7.050039399999999956e-01 8.655059499999999684e-01 7.873615499999999656e-01 6.779280399999999540e-01 5.767771699999999502e-01 4.259490899999999747e-01 2.556540800000000058e-01 2.759965799999999914e-01 5.125057499999999822e-01 5.502340999999999482e-01 4.485007999999999773e-01 3.019998999999999878e-01 -2.012425100000000133e-01 -8.883916299999999877e-01 -1.585391999999999912e+00 -2.617942300000000166e+00 -3.372479499999999852e+00 -4.063303300000000284e+00 -3.239192200000000188e+00 -2.816789899999999847e+00 -1.101981600000000006e+00
1.000000000000000000e+00 -7.328746699999999503e-01 -2.446093700000000037e+00 -3.617821999999999871e+00 -4.206152900000000194e+00 -3.896499799999999958e+00 -2.794127800000000050e+00 -2.029359599999999819e+00 -1.723744699999999908e+00 -1.172043600000000074e+00 -5.926680399999999516e-01 -5.942245499999999625e-01 -6.007368899999999678e-01 -5.771757600000000377e-01 -4.555635900000000182e-01 -5.130798600000000542e-01 -5.863408700000000140e-01 -5.360443999999999765e-01 -5.188728999999999703e-01 -5.381191499999999905e-01 -6.229211399999999843e-01 -6.292608800000000224e-01 -5.314501700000000550e-01 -5.968557500000000182e-01 -6.563535999999999815e-01 -5.947492800000000468e-01 -6.706573799999999697e-01 -7.192081299999999455e-01 -7.755790399999999973e-01 -7.445219499999999879e-01 -8.849063900000000427e-01 -9.094841399999999965e-01 -9.407315800000000117e-01 -1.000437699999999985e+00 -9.200141699999999645e-01 -9.933888600000000402e-01 -9.214690399999999615e-01 -8.595594800000000424e-01 -9.211420500000000455e-01 -8.674829699999999644e-01 -6.938928100000000265e-01 -7.025713799999999676e-01 -6.116293699999999500e-01 -4.992213500000000082e-01 -4.224669300000000183e-01 -3.942013899999999849e-01 -2.122605399999999976e-01 -1.370810799999999940e-01 -1.341268899999999986e-01 -1.076036600000000037e-01 -4.222806900000000002e-02 -7.369277200000000361e-02 -1.842784899999999962e-02 3.362357600000000224e-02 2.447491400000000039e-02 7.957270800000000588e-02 7.482601399999999625e-02 1.589280799999999993e-01 1.522153199999999873e-01 5.085429999999999812e-02 1.650004700000000102e-01 1.826181100000000002e-01 1.694701100000000071e-01 2.787681900000000268e-01 2.819277900000000114e-01 2.868045699999999809e-01 3.338026599999999733e-01 4.257003799999999893e-01 4.758157399999999870e-01 5.034327100000000055e-01 5.780973999999999835e-01 5.728162300000000373e-01 7.199507699999999621e-01 7.064347500000000002e-01 6.755646699999999782e-01 6.342698399999999737e-01 5.997447700000000381e-01 5.310276499999999622e-01 5.867547800000000313e-01 6.155832799999999549e-01 4.862368799999999824e-01 5.164031900000000119e-01 4.603591799999999790e-01 4.768608899999999817e-01 5.045379399999999626e-01 4.221599500000000060e-01 4.863551700000000033e-01 4.563632599999999928e-01 3.557236599999999971e-01 3.445875299999999752e-01 3.901919899999999886e-01 3.472079200000000032e-01 3.829810000000000159e-01 3.631843699999999786e-01 3.778311300000000150e-01 4.227824600000000266e-01 3.896993999999999736e-01 5.337264699999999529e-01 6.775723099999999555e-01 9.117463500000000387e-01 1.153640199999999894e+00 1.298777300000000023e+00 1.439487900000000042e+00 1.692357300000000064e+00 1.885789799999999961e+00 2.050253699999999846e+00 1.879445999999999950e+00 1.859252300000000080e+00 1.716090700000000080e+00 1.480618900000000071e+00 1.320574499999999984e+00 1.017303999999999986e+00 6.540304000000000118e-01 2.633825799999999773e-01 9.125741200000000650e-03 -9.955152400000000235e-02 -1.439891000000000087e-01 -9.971005700000000471e-02 -1.116198399999999979e-01 -7.016597199999999313e-02 -1.287895900000000093e-01 -8.157497399999999455e-02 -1.432380400000000109e-01 -1.452573899999999862e-01 -9.848185299999999420e-02 -9.972570000000000046e-02 -1.780616499999999880e-01 -6.081888500000000308e-02 -2.269825400000000104e-02 1.168697399999999997e-01 5.664078000000000168e-01 1.320618199999999964e+00 1.386966099999999980e+00 1.110524000000000067e+00 1.086999100000000107e+00 9.075995100000000537e-01 5.569074299999999811e-01 4.784700399999999854e-01 8.766969500000000304e-01 1.565474400000000044e+00 5.265499799999999730e-01
1.000000000000000000e+00 -1.735893300000000083e+00 -4.475582900000000031e+00 -4.593244099999999719e+00 -4.368985499999999966e+00 -3.033365600000000217e+00 -2.040790799999999905e+00 -1.589382199999999967e+00 -1.211120200000000091e+00 -3.058612600000000237e-01 -1.590546100000000129e-01 -1.096996799999999939e-01 -1.231539400000000034e-01 -2.843835399999999902e-01 -1.173639499999999947e-01 -1.979097800000000074e-01 -2.254467599999999960e-01 -2.317777900000000113e-01 -2.411944799999999889e-01 -2.497352899999999987e-01 -2.434026300000000087e-01 -3.250753100000000062e-01 -4.469262099999999904e-01 -5.030534700000000026e-01 -4.509273899999999835e-01 -4.023877799999999727e-01 -3.342991699999999788e-01 -5.151440999999999937e-01 -5.841087700000000549e-01 -5.738997300000000523e-01 -7.187013899999999955e-01 -8.498876300000000050e-01 -7.991236499999999632e-01 -7.720636899999999692e-01 -8.774060500000000484e-01 -8.844469700000000545e-01 -8.439658599999999566e-01 -6.852416399999999852e-01 -8.872463400000000222e-01 -8.053643299999999616e-01 -6.998990200000000383e-01 -6.551663800000000482e-01 -6.042501000000000122e-01 -4.620997099999999969e-01 -3.206301300000000132e-01 -3.101375199999999999e-01 -1.552485899999999919e-01 -1.498496800000000129e-01 -5.344524199999999697e-02 3.722910299999999950e-02 1.175683200000000039e-01 1.096866499999999967e-01 1.167908099999999949e-01 6.510303500000000007e-03 1.879346000000000141e-02 3.494138099999999966e-03 7.053676799999999969e-02 1.756595200000000134e-01 2.126400999999999986e-01 2.503034199999999987e-01 5.941053899999999832e-02 1.765189000000000064e-01 1.780632400000000115e-01 1.517904300000000040e-01 2.574873799999999879e-01 3.316625300000000109e-01 3.949759600000000148e-01 3.898833099999999829e-01 3.431982900000000170e-01 2.284210499999999866e-01 4.399703500000000100e-01 4.795017400000000096e-01 5.706221599999999894e-01 5.881404799999999655e-01 5.653334300000000257e-01 5.930533300000000452e-01 5.178235300000000318e-01 5.753279700000000219e-01 6.356521800000000111e-01 5.574100600000000405e-01 5.131923299999999744e-01 4.920739299999999927e-01 6.191349999999999909e-01 6.001798000000000410e-01 4.225401699999999927e-01 3.949598000000000275e-01 4.215708899999999759e-01 3.797430299999999814e-01 3.342763599999999946e-01 3.013868900000000184e-01 3.771690999999999794e-01 3.499525600000000236e-01 2.913941199999999787e-01 2.535108099999999753e-01 3.087866599999999906e-01 3.226496300000000206e-01 1.581120400000000092e-01 2.814796500000000257e-01 4.077705500000000094e-01 6.100603199999999893e-01 7.728973999999999567e-01 8.636564100000000410e-01 1.097149600000000058e+00 1.154837499999999961e+00 1.508355300000000065e+00 1.708537100000000031e+00 1.769157400000000102e+00 1.743227400000000094e+00 1.665696800000000088e+00 1.439706600000000059e+00 1.262836899999999929e+00 1.006549600000000044e+00 6.506300699999999493e-01 1.506230500000000083e-01 -1.611021599999999943e-01 -2.288552100000000034e-01 -2.342734200000000100e-01 -2.124057000000000028e-01 -2.462536300000000011e-01 -2.540342099999999825e-01 -2.219334799999999885e-01 -2.589564300000000152e-01 -2.584363700000000263e-01 -2.123114899999999916e-01 -1.967304500000000012e-01 -1.772259999999999946e-01 -1.240562500000000068e-01 -1.659779299999999957e-01 -1.292310499999999862e-01 2.917069499999999996e-02 4.401838599999999824e-01 1.399970299999999890e+00 1.765149499999999927e+00 1.616052700000000009e+00 1.901942299999999975e+00 1.697740800000000050e+00 9.354571699999999490e-01 2.538681500000000146e-01 9.238308300000000473e-02 8.588968599999999842e-01 -4.889518900000000001e-01
2.000000000000000000e+00 7.844973699999999717e-01 2.590985499999999830e-01 -1.924084500000000086e-01 -6.923121500000000150e-01 -8.461118899999999776e-01 -1.260736599999999985e+00 -1.644198199999999943e+00 -1.774392600000000098e+00 -1.703481599999999929e+00 -1.446680799999999989e+00 -1.010277099999999928e+00 -7.067560600000000193e-01 -5.844507300000000294e-01 -4.378185099999999941e-01 -3.373544399999999777e-01 -8.889005699999999455e-02 3.036661600000000183e-01 4.773794699999999724e-01 4.622366700000000161e-01 4.867550700000000119e-01 4.961898299999999984e-01 4.310583399999999843e-01 4.589740099999999878e-01 5.331032599999999677e-01 4.934424000000000032e-01 5.143380400000000519e-01 5.375820999999999517e-01 4.421003199999999911e-01 5.208838000000000079e-01 5.118980199999999536e-01 4.099828500000000098e-01 5.018829099999999599e-01 4.889409499999999853e-01 4.379466300000000034e-01 4.831755200000000250e-01 4.623252700000000104e-01 4.083385299999999773e-01 4.325789999999999913e-01 4.422760600000000264e-01 4.041804299999999794e-01 4.032957300000000189e-01 3.822174199999999744e-01 3.494183100000000097e-01 3.660666000000000198e-01 3.534675299999999742e-01 2.794551100000000066e-01 2.309484199999999876e-01 2.545847800000000105e-01 2.914021399999999762e-01 2.895815999999999946e-01 2.408566699999999949e-01 1.669672399999999890e-01 1.111608300000000021e-01 8.277591300000000651e-02 9.841250299999999840e-02 1.391912299999999991e-01 1.089238399999999940e-01 3.508045900000000134e-02 -1.563527699999999962e-04 -3.468258899999999978e-02 -6.146834500000000062e-02 -6.650415199999999694e-02 -2.837105200000000077e-02 1.826240900000000028e-02 -4.061336699999999744e-02 -1.088080000000000019e-01 -9.418945200000000684e-02 -8.610225900000000043e-02 -4.331893700000000180e-02 -5.333930700000000420e-03 -6.904449799999999582e-02 -6.141079900000000202e-02 1.121067000000000070e-02 1.277385600000000010e-02 3.303415299999999666e-02 2.957416400000000001e-02 -3.379248899999999934e-03 8.799255200000000166e-02 1.649690400000000112e-01 1.693352399999999980e-01 2.255447800000000003e-01 2.878439500000000151e-01 2.958968499999999890e-01 3.721507700000000196e-01 4.983560400000000001e-01 4.936345899999999842e-01 5.007365900000000369e-01 5.011397100000000160e-01 5.229594100000000134e-01 5.928211199999999792e-01 5.860651000000000055e-01 6.658969599999999822e-01 6.462498399999999643e-01 6.212999700000000347e-01 6.251812599999999609e-01 5.982814699999999819e-01 7.506733300000000275e-01 7.647940500000000030e-01 7.407268799999999764e-01 8.362072299999999681e-01 8.387673300000000332e-01 8.029904199999999825e-01 7.853529500000000496e-01 7.651218800000000320e-01 7.845561500000000077e-01 8.382946100000000511e-01 8.455990399999999685e-01 8.252688099999999638e-01 8.276248000000000493e-01 8.289042599999999483e-01 8.357904200000000339e-01 8.899843899999999586e-01 9.178099100000000066e-01 8.783460299999999998e-01 8.483816100000000082e-01 8.676158800000000060e-01 8.939163100000000473e-01 8.665312400000000359e-01 7.654543299999999606e-01 5.873150200000000209e-01 3.983621099999999915e-01 3.780509799999999809e-01 4.201177700000000015e-01 2.460477699999999990e-01 -1.269180800000000017e-03 -2.692044900000000185e-01 -4.933596900000000174e-01 -7.024330399999999530e-01 -1.050257299999999949e+00 -1.258274899999999974e+00 -1.380776199999999898e+00 -1.733018699999999912e+00 -2.026877600000000168e+00 -2.538206699999999927e+00 -2.947331900000000005e+00 -3.127746000000000137e+00 -3.808772300000000222e+00 -3.587590500000000127e+00 -4.595449300000000292e+00 -3.008633800000000136e+00
1.000000000000000000e+00 1.870131599999999894e+00 1.689701200000000014e+00 -1.053943600000000064e-01 -2.123530600000000046e+00 -3.245532199999999978e+00 -4.113339200000000417e+00 -3.413824500000000040e+00 -2.242469400000000057e+00 -1.732544199999999979e+00 -1.373507699999999998e+00 -2.862628600000000079e-01 -6.737248599999999532e-02 -1.105400099999999941e-01 -1.972733100000000073e-01 -1.250425699999999918e-01 -2.171644500000000089e-01 -1.779679000000000122e-01 -1.943187500000000123e-01 -2.754716700000000018e-01 -2.004253199999999902e-01 -3.197427299999999750e-01 -3.849666999999999950e-01 -5.003069199999999883e-01 -3.611695699999999953e-01 -5.339059299999999730e-01 -5.013964100000000146e-01 -5.095874099999999629e-01 -5.119537800000000249e-01 -5.807173599999999603e-01 -8.184574799999999595e-01 -7.871059599999999934e-01 -8.710294699999999724e-01 -1.042073900000000108e+00 -1.138564099999999968e+00 -1.059743300000000055e+00 -1.190110699999999966e+00 -1.167605900000000085e+00 -1.183953000000000033e+00 -1.133839999999999959e+00 -1.244334199999999946e+00 -1.133406499999999983e+00 -1.050310400000000088e+00 -9.152600400000000525e-01 -8.861876499999999934e-01 -8.001655899999999821e-01 -5.932982799999999557e-01 -6.156902899999999734e-01 -4.781735899999999817e-01 -2.461913900000000099e-01 -1.786237300000000083e-01 -1.496611399999999981e-01 -1.658307900000000057e-01 -5.670571299999999787e-02 -1.953593400000000133e-02 3.349959500000000007e-02 8.696099399999999979e-02 -1.978960000000000094e-02 1.080779000000000045e-01 7.570071899999999965e-02 1.278747000000000078e-01 5.776297600000000060e-02 7.379106800000000133e-02 8.184254700000000854e-03 4.136629900000000221e-02 1.744237299999999991e-01 7.442388499999999518e-02 1.153586499999999931e-01 1.977319999999999911e-01 3.337124699999999833e-01 3.704569200000000229e-01 3.063766700000000176e-01 3.669482099999999969e-01 5.360513799999999662e-01 4.510421299999999856e-01 4.237021100000000207e-01 6.134649699999999983e-01 5.374331799999999548e-01 5.232873099999999500e-01 5.940612100000000062e-01 6.127213000000000243e-01 5.717866400000000127e-01 4.894895300000000060e-01 4.901074300000000106e-01 4.059850799999999982e-01 3.146674500000000152e-01 3.228560200000000213e-01 4.115263499999999852e-01 2.407541500000000001e-01 2.118711000000000066e-01 3.130012300000000192e-01 1.652067999999999870e-01 2.638442500000000024e-01 2.833795399999999853e-01 1.571159099999999975e-01 2.482664900000000063e-01 1.953704400000000063e-01 1.685471799999999909e-01 3.445694100000000204e-01 3.131075400000000175e-01 3.646218199999999854e-01 5.653327599999999897e-01 8.069951100000000155e-01 1.174194900000000041e+00 1.131124800000000041e+00 1.271312400000000009e+00 1.545564099999999996e+00 1.954474199999999939e+00 2.133053799999999889e+00 2.040357399999999988e+00 1.853565300000000082e+00 1.598822500000000035e+00 1.353158099999999919e+00 1.038322200000000084e+00 7.045661899999999811e-01 2.488238700000000025e-01 -2.666068600000000011e-01 -3.930353799999999898e-01 -3.967492599999999925e-01 -3.430055499999999924e-01 -3.523602100000000070e-01 -3.641103900000000060e-01 -4.089376399999999911e-01 -3.919990199999999758e-01 -3.096699399999999769e-01 -4.108338000000000267e-01 -2.812538600000000222e-01 -3.257321599999999928e-01 -3.459914499999999782e-01 -2.589389400000000063e-01 -1.526548400000000139e-01 -1.956765599999999994e-01 2.154251700000000061e-03 8.977971200000000040e-01 1.091212000000000071e+00 1.557651600000000025e+00 2.219753700000000052e+00 2.386853599999999798e+00 2.035453899999999816e+00 9.865765199999999568e-01 1.271490800000000032e+00
1.000000000000000000e+00 -7.616616899999999468e-01 -2.389032100000000103e+00 -3.456715700000000169e+00 -3.921276999999999902e+00 -3.887266100000000169e+00 -3.597207000000000043e+00 -3.020354799999999784e+00 -1.963612700000000100e+00 -1.205901899999999971e+00 -1.059580500000000036e+00 -6.805371000000000059e-01 -1.861681699999999939e-01 -1.067777200000000065e-01 -1.086637500000000034e-01 -1.901676700000000039e-02 -1.941093999999999875e-01 -1.475980400000000137e-01 -1.426021000000000094e-01 -1.738255499999999953e-01 -4.341376000000000263e-02 -1.429781400000000036e-01 -1.187971699999999936e-01 -1.254118800000000034e-01 -1.494110899999999964e-01 -2.251281300000000096e-01 -1.750096200000000046e-01 -1.644488400000000128e-01 -1.866877600000000081e-01 -1.176868699999999990e-01 -6.147593500000000238e-02 -1.129654699999999984e-01 -8.477273600000000131e-02 -9.124369699999999861e-02 -1.721389499999999989e-03 -3.874119000000000174e-02 1.274605600000000040e-03 2.472047800000000059e-02 2.165177600000000105e-02 6.875455699999999393e-02 5.203332199999999991e-02 2.277313900000000127e-02 1.597844900000000012e-01 6.046751599999999893e-02 2.324691399999999908e-01 1.581242999999999954e-01 1.698036199999999885e-01 1.968225000000000113e-01 2.161900200000000105e-01 2.916233200000000192e-01 2.245706500000000105e-01 3.299267200000000066e-01 2.462353499999999917e-01 2.035355299999999923e-01 2.782072300000000276e-01 1.926665499999999920e-01 1.257410800000000051e-01 9.352918400000000132e-02 1.126496300000000006e-01 1.044734499999999955e-01 3.561905600000000310e-02 6.053598300000000154e-02 4.283992400000000145e-02 6.020633400000000024e-02 5.432715800000000039e-02 8.372028300000000645e-02 7.480626399999999732e-02 1.183787899999999976e-01 2.212563300000000011e-01 1.731136500000000078e-01 1.578472499999999945e-01 2.254964399999999924e-01 2.301866999999999941e-01 3.488798599999999861e-01 3.230645799999999901e-01 2.756860099999999814e-01 4.952633900000000255e-01 5.018060399999999532e-01 4.804672600000000071e-01 4.507503999999999955e-01 4.857574000000000058e-01 4.342571499999999807e-01 4.770709300000000042e-01 6.008303000000000393e-01 6.119242200000000187e-01 4.982558599999999949e-01 3.607242900000000030e-01 3.884495800000000165e-01 4.379907399999999895e-01 4.408520000000000216e-01 5.190145200000000347e-01 5.987629300000000265e-01 5.798365500000000061e-01 6.910224799999999945e-01 8.005830600000000130e-01 9.203485999999999612e-01 1.179586699999999988e+00 1.422501100000000074e+00 1.726693400000000045e+00 1.974337800000000032e+00 2.121860799999999880e+00 2.125534700000000221e+00 2.143414799999999953e+00 1.969720099999999974e+00 1.786041800000000013e+00 1.587172900000000109e+00 1.389112899999999984e+00 9.842215100000000216e-01 6.369308599999999876e-01 2.324783500000000003e-01 3.497542599999999696e-02 -1.974273300000000120e-01 -3.550694699999999981e-01 -4.005589199999999850e-01 -4.367058899999999855e-01 -3.437546499999999949e-01 -4.126238300000000248e-01 -3.446915700000000027e-01 -3.383409700000000186e-01 -3.532173900000000200e-01 -2.926593299999999953e-01 -3.334413600000000200e-01 -4.582927099999999920e-01 -3.512029500000000137e-01 -3.117379399999999912e-01 -3.018603300000000100e-01 -2.479689099999999868e-01 -2.377472099999999866e-02 3.421534500000000256e-01 9.780602099999999854e-01 1.129900799999999927e+00 8.743851000000000262e-01 7.496424200000000315e-01 7.633984200000000497e-02 -6.651747000000000076e-01 -9.657467299999999977e-01 -1.324902199999999919e+00 -1.075422899999999959e+00 -7.288893400000000522e-01 -8.698585699999999976e-01 -2.317900900000000153e+00
2.000000000000000000e+00 2.359456100000000001e-01 1.886159900000000111e-01 -3.437419999999999920e-01 -7.055785300000000371e-01 -9.861172799999999850e-01 -1.271781599999999957e+00 -1.421836399999999889e+00 -1.282786100000000040e+00 -9.344484699999999755e-01 -6.590907299999999580e-01 -4.793107300000000182e-01 -3.571819399999999756e-01 -1.116605400000000026e-01 1.277368200000000009e-01 1.171073499999999989e-01 9.669730199999999887e-02 9.183153600000000527e-02 1.286798700000000018e-01 9.560012599999999361e-02 1.510017399999999954e-01 1.175398200000000032e-01 1.409261099999999933e-01 1.684092500000000103e-01 1.648037800000000108e-01 1.093845600000000057e-01 8.348777899999999808e-02 3.994679799999999864e-02 8.162281700000000029e-02 1.020463300000000045e-01 2.663046000000000163e-02 7.860211400000000070e-02 6.085745699999999675e-02 4.622999299999999701e-03 1.867267900000000105e-02 5.246701000000000142e-02 -7.850731899999999555e-03 -7.048579600000000334e-02 -5.388446100000000155e-02 -4.747405100000000322e-02 -7.634265499999999538e-02 -1.058986100000000041e-01 -1.685227300000000095e-01 -1.870593899999999921e-01 -1.323218100000000119e-01 -1.427440000000000098e-01 -1.959976800000000074e-01 -1.979776900000000117e-01 -1.819073599999999902e-01 -1.840272900000000100e-01 -1.530460600000000115e-01 -2.114060799999999962e-01 -1.890399299999999949e-01 -1.835184699999999891e-01 -1.217011699999999974e-01 -1.017964799999999947e-01 -1.041738700000000017e-01 -2.104434999999999986e-02 5.420897499999999952e-02 4.045277299999999743e-02 4.085659199999999713e-02 1.500329900000000050e-01 1.936771399999999976e-01 2.168647800000000070e-01 1.971417799999999887e-01 2.352094399999999919e-01 2.575922399999999723e-01 2.542286899999999794e-01 2.758395499999999889e-01 2.471559200000000012e-01 2.733893099999999965e-01 3.208623199999999787e-01 3.281099299999999941e-01 3.431452400000000180e-01 3.858265900000000248e-01 3.153900000000000037e-01 3.120051999999999826e-01 3.386004599999999920e-01 3.594961999999999880e-01 4.092022900000000241e-01 3.643113099999999993e-01 3.506944000000000172e-01 4.002480700000000113e-01 4.134431900000000160e-01 3.978023800000000110e-01 4.127878899999999907e-01 4.698992200000000063e-01 4.980769800000000025e-01 4.769398799999999827e-01 5.246568000000000342e-01 5.034380200000000416e-01 5.616770199999999713e-01 5.552170300000000003e-01 5.729269299999999454e-01 5.862124699999999855e-01 6.315863699999999525e-01 6.367774299999999776e-01 6.580425800000000436e-01 6.730477499999999447e-01 6.742062199999999672e-01 6.236137400000000275e-01 6.292415099999999484e-01 6.424037099999999612e-01 6.831313500000000261e-01 6.561046200000000272e-01 6.358733300000000144e-01 6.471539200000000491e-01 6.191824400000000006e-01 5.766697699999999704e-01 5.927958500000000130e-01 5.513242099999999812e-01 5.711170599999999542e-01 5.733752500000000030e-01 5.821216399999999958e-01 5.295803300000000435e-01 5.148563499999999626e-01 5.383150899999999961e-01 5.681868199999999813e-01 5.313282900000000364e-01 5.356888100000000152e-01 4.906072699999999842e-01 5.609527399999999497e-01 6.773467199999999577e-01 7.647421500000000094e-01 1.042297400000000041e+00 1.113013000000000030e+00 8.786964600000000125e-01 5.598752299999999460e-01 5.366108099999999936e-01 7.809320800000000284e-01 4.493186499999999861e-01 -1.607023599999999885e-01 -4.550844700000000187e-01 -6.281354999999999578e-01 -1.474021699999999990e+00 -2.127469300000000008e+00 -2.679064100000000170e+00 -3.370249799999999851e+00 -4.611268500000000437e+00 -5.491507600000000267e+00 -5.661715100000000334e+00
1.000000000000000000e+00 -9.541760599999999926e-01 -3.263277700000000170e+00 -4.126772599999999791e+00 -4.309010999999999925e+00 -3.869428800000000113e+00 -3.445037099999999963e+00 -2.108957199999999865e+00 -1.124165000000000081e+00 -9.849616100000000429e-01 -3.786995000000000222e-01 -4.246057600000000334e-03 6.519909599999999805e-02 -9.099382699999999935e-02 -4.249819299999999661e-02 -9.832611500000000559e-02 -1.272852399999999939e-01 -1.396007300000000062e-01 -8.319366000000000261e-02 -1.742136900000000044e-01 -2.036509499999999973e-01 -1.036425900000000067e-01 -1.257202500000000056e-01 -1.570786200000000021e-01 -1.882734600000000036e-01 -1.965666000000000080e-01 -2.373938700000000068e-01 -3.802632300000000076e-01 -2.847935300000000169e-01 -3.093960199999999938e-01 -3.103220999999999896e-01 -4.890427800000000103e-01 -5.031997400000000065e-01 -5.061230399999999685e-01 -5.234848899999999805e-01 -5.069668999999999981e-01 -5.203796699999999609e-01 -7.064859300000000397e-01 -5.177113899999999935e-01 -5.521448100000000414e-01 -5.864616599999999957e-01 -4.376750500000000099e-01 -4.612979700000000016e-01 -2.728385999999999867e-01 -2.405263599999999946e-01 -2.190585200000000066e-01 -1.911335000000000117e-01 -5.417974300000000243e-02 -5.232029800000000119e-02 -6.443301999999999363e-02 2.757824000000000039e-02 3.782513199999999742e-02 4.556907400000000108e-02 8.866597599999999357e-02 5.765969300000000448e-04 -5.008552799999999722e-02 3.624007800000000196e-02 -7.917324099999999490e-03 3.355982300000000078e-03 -5.794658899999999974e-02 2.931674999999999906e-02 6.716858000000000550e-02 4.902187100000000158e-02 1.055510999999999949e-01 1.500228000000000117e-01 5.873076800000000264e-02 1.734879400000000071e-01 1.336984999999999979e-01 1.195652999999999994e-01 1.024603699999999951e-01 1.249141599999999963e-01 2.626681100000000102e-01 2.584551099999999879e-01 3.856511799999999823e-01 4.530373999999999790e-01 3.907665799999999745e-01 4.239921899999999910e-01 3.992827800000000038e-01 4.587963800000000036e-01 4.282143199999999816e-01 3.636747000000000174e-01 4.118677499999999769e-01 4.249191199999999835e-01 3.895576000000000039e-01 3.502562699999999807e-01 3.545537799999999851e-01 3.353212600000000099e-01 3.306001100000000026e-01 2.889468800000000170e-01 3.446820999999999913e-01 3.500727100000000092e-01 3.669812199999999969e-01 4.209960099999999761e-01 3.032557900000000251e-01 4.521612700000000040e-01 5.587902000000000147e-01 7.562505499999999659e-01 9.360907099999999925e-01 1.058165299999999975e+00 1.293511899999999937e+00 1.456121999999999916e+00 1.762196899999999955e+00 2.027688700000000122e+00 2.070358000000000143e+00 2.168154900000000218e+00 1.874918300000000038e+00 1.563163999999999998e+00 1.468725499999999906e+00 1.188685500000000062e+00 8.755215299999999923e-01 5.852560500000000276e-01 7.105037799999999737e-02 -1.340504499999999877e-01 -1.884799100000000005e-01 -2.486441400000000135e-01 -2.712033600000000044e-01 -2.916641700000000004e-01 -2.054832500000000062e-01 -1.973554600000000103e-01 -2.370315199999999956e-01 -1.744170600000000126e-01 -2.389597199999999866e-01 -1.784596099999999907e-01 -1.166018000000000054e-01 -1.912488699999999875e-01 -1.220354200000000056e-01 -1.614098399999999989e-01 1.936229899999999905e-03 7.569420300000000157e-02 4.194575700000000018e-01 8.479299099999999534e-01 8.382617900000000066e-01 1.047032299999999916e+00 9.878016200000000469e-01 9.923690299999999853e-01 1.109449200000000024e+00 8.282180599999999782e-01 1.124194399999999927e+00 9.840482400000000185e-01 -3.553642200000000084e-01 -2.682934700000000117e+00
2.000000000000000000e+00 -7.742814799999999664e-01 -1.405188300000000057e+00 -1.818096500000000004e+00 -1.993326900000000013e+00 -2.174304699999999979e+00 -2.188201900000000144e+00 -2.001835699999999996e+00 -1.701468600000000109e+00 -1.209481000000000028e+00 -8.735934800000000333e-01 -7.853044799999999714e-01 -6.681086999999999998e-01 -4.548854199999999848e-01 -3.387805199999999739e-01 -2.279483499999999940e-01 -2.005891700000000111e-01 -2.420470600000000083e-01 -2.582905400000000129e-01 -2.644450899999999938e-01 -2.371666299999999894e-01 -2.337858899999999962e-01 -2.402651000000000092e-01 -2.331711200000000095e-01 -2.991103900000000038e-01 -2.662790800000000013e-01 -1.532910399999999895e-01 -1.874150499999999997e-01 -1.584993299999999938e-01 -1.934703700000000026e-01 -2.382959799999999906e-01 -2.240821199999999958e-01 -2.661389200000000010e-01 -2.844337299999999957e-01 -2.495504400000000123e-01 -2.358708499999999930e-01 -3.182728499999999960e-01 -2.750649600000000250e-01 -2.003097399999999861e-01 -2.224602099999999916e-01 -2.006708199999999997e-01 -1.250898900000000091e-01 -1.036271599999999959e-01 -1.925960600000000134e-01 -1.737045200000000011e-01 -1.605033800000000010e-01 -2.111559000000000075e-01 -1.976575299999999979e-01 -1.175551100000000043e-01 -2.886253899999999956e-02 -1.895923899999999926e-02 -2.052672100000000124e-02 -6.458669000000000215e-02 -7.963550499999999532e-02 -3.260350000000000054e-02 1.580107799999999965e-02 1.979679399999999950e-02 2.366278399999999921e-02 1.539107800000000074e-02 -4.140545400000000126e-02 -4.993016399999999910e-02 -1.055747200000000004e-02 -1.173541800000000024e-01 -8.531482699999999586e-02 -5.690831899999999888e-02 -8.902813699999999331e-02 -1.213554599999999983e-01 -8.730883400000000183e-02 -1.135368199999999966e-01 -1.861646299999999976e-01 -1.237154399999999960e-01 -1.597668200000000038e-01 -8.551683699999999833e-02 -2.109603399999999962e-02 -3.479859300000000266e-02 -1.183894199999999952e-01 -1.757031500000000024e-01 -2.346805700000000050e-01 -1.853888300000000044e-01 -4.625203700000000279e-02 2.956290500000000043e-03 -1.021577600000000002e-01 -1.622174399999999905e-01 -7.020504599999999318e-02 -7.059723299999999535e-02 -6.507129400000000174e-02 6.437655400000000250e-02 1.031444499999999986e-01 7.066875100000000187e-02 6.769999499999999892e-02 1.070312399999999997e-01 8.706947199999999498e-02 6.254625599999999452e-02 2.091241799999999929e-01 2.903568400000000049e-01 1.922957000000000138e-01 1.243002200000000029e-01 2.074342600000000092e-01 2.010576400000000097e-01 1.229939800000000028e-01 1.094940999999999970e-01 1.715213899999999958e-01 2.364227000000000134e-01 3.176234099999999949e-01 3.028269199999999994e-01 3.355467899999999837e-01 5.111074500000000187e-01 6.753230199999999961e-01 7.868122499999999908e-01 9.286347700000000538e-01 1.174680600000000075e+00 1.473553499999999961e+00 1.692576999999999998e+00 1.703560200000000080e+00 1.707754800000000017e+00 1.869600399999999940e+00 1.998274399999999895e+00 2.131877300000000197e+00 2.230656999999999890e+00 2.233713999999999977e+00 2.234817399999999843e+00 2.252977500000000077e+00 2.204200999999999855e+00 2.136341999999999963e+00 2.123051999999999939e+00 2.052985699999999802e+00 1.855457600000000040e+00 1.544094800000000101e+00 1.339038500000000020e+00 9.220161999999999525e-01 3.092541400000000107e-01 -4.905755999999999832e-03 -3.304662500000000169e-01 -3.880908399999999925e-01 -4.864963700000000113e-01 -1.325774100000000066e+00 -2.171520099999999953e+00 -2.481960200000000061e+00 -2.739755999999999858e+00 -2.670883599999999802e+00 -2.314386400000000066e+00
2.000000000000000000e+00 -5.136026099999999595e-01 -9.851580800000000471e-01 -1.402638899999999911e+00 -1.934085300000000007e+00 -2.228856500000000018e+00 -2.184438099999999938e+00 -1.851681799999999933e+00 -1.426482299999999981e+00 -1.028222100000000028e+00 -8.544280300000000050e-01 -8.205310399999999893e-01 -5.996561599999999936e-01 -3.143427799999999883e-01 -2.394039000000000028e-01 -2.697132799999999997e-01 -2.700645300000000248e-01 -2.641835499999999892e-01 -2.818068899999999766e-01 -2.545001100000000016e-01 -2.622004299999999843e-01 -2.324340599999999979e-01 -2.689068800000000148e-01 -2.529779500000000070e-01 -2.277905600000000030e-01 -2.882658900000000246e-01 -2.978243999999999891e-01 -3.022696400000000061e-01 -2.998046999999999795e-01 -3.332537799999999995e-01 -3.172299900000000172e-01 -3.460771599999999948e-01 -3.684909399999999891e-01 -3.020638600000000173e-01 -3.621175200000000260e-01 -3.771723699999999790e-01 -4.006447000000000203e-01 -4.186906300000000081e-01 -4.356405700000000047e-01 -4.399189199999999911e-01 -4.415540000000000020e-01 -4.420049300000000181e-01 -5.221905100000000521e-01 -5.143126700000000273e-01 -5.381755400000000078e-01 -5.252780700000000413e-01 -5.768047200000000485e-01 -5.856808799999999593e-01 -5.227764200000000194e-01 -4.872218500000000119e-01 -5.096904500000000171e-01 -4.908797799999999878e-01 -5.383723599999999943e-01 -4.783197299999999985e-01 -4.418249899999999730e-01 -3.919383300000000014e-01 -4.183036199999999871e-01 -3.119657599999999809e-01 -2.692644100000000096e-01 -2.500305899999999970e-01 -1.633180100000000134e-01 -1.813877700000000037e-01 -1.936633299999999946e-01 -1.634914699999999999e-01 -1.495374700000000057e-01 -1.255502900000000088e-01 -9.705379699999999721e-02 -1.015452300000000002e-01 -9.215355199999999969e-02 -9.487803300000000051e-02 -1.069697099999999956e-01 -1.062280800000000025e-01 -1.258991899999999942e-01 -7.372235900000000119e-02 -5.800903000000000309e-02 -7.469933700000000454e-02 -8.306131499999999668e-02 -7.922185800000000611e-02 -6.331037500000000207e-02 -2.768735099999999894e-02 -3.312011699999999753e-02 -2.732794399999999985e-02 -1.728796499999999889e-02 -5.649839699999999881e-02 -1.827183900000000152e-02 -2.500566800000000173e-02 -1.194804999999999999e-02 2.566588399999999992e-02 2.485100800000000082e-02 4.762734500000000148e-02 5.462864099999999862e-02 7.647066600000000658e-02 1.248022800000000015e-01 1.350497599999999909e-01 1.307912699999999873e-01 1.642759500000000039e-01 2.096412400000000065e-01 2.115195500000000006e-01 2.508232000000000239e-01 2.556587799999999744e-01 2.146629399999999965e-01 2.781551800000000019e-01 2.483776900000000121e-01 2.135805500000000079e-01 2.666349499999999817e-01 3.020995000000000208e-01 2.613726699999999736e-01 2.359520499999999965e-01 2.571135999999999977e-01 3.146897000000000166e-01 3.599231800000000092e-01 4.495835100000000195e-01 5.611725499999999922e-01 6.510429100000000302e-01 8.194484399999999447e-01 8.834458499999999770e-01 9.769729099999999722e-01 1.127183899999999905e+00 1.331357799999999925e+00 1.560014699999999976e+00 1.719724800000000053e+00 1.803187499999999943e+00 2.022130399999999995e+00 2.325627700000000075e+00 2.526292399999999994e+00 2.721624999999999961e+00 2.939114800000000027e+00 3.013217200000000151e+00 2.865178499999999850e+00 2.477842900000000181e+00 2.240614299999999837e+00 1.903400299999999934e+00 1.250856399999999979e+00 8.378423299999999685e-01 5.136399000000000381e-01 5.130353300000000116e-01 3.046082099999999904e-01 -9.354172099999999990e-01 -2.355461599999999933e+00 -2.819327299999999870e+00 -3.027314000000000060e+00
2.000000000000000000e+00 -1.082566799999999940e+00 -2.037982599999999866e+00 -2.283882499999999816e+00 -2.627103500000000036e+00 -2.544449600000000089e+00 -2.587142699999999795e+00 -2.361911500000000164e+00 -2.157920299999999791e+00 -1.730586500000000028e+00 -1.165780800000000061e+00 -8.134016699999999656e-01 -6.713571499999999581e-01 -6.229658500000000432e-01 -3.841535300000000208e-01 8.452353999999999814e-04 2.554860800000000043e-01 3.037233300000000136e-01 2.985677899999999996e-01 3.429940200000000106e-01 3.501781400000000266e-01 3.604362199999999739e-01 4.095028800000000135e-01 3.025516799999999895e-01 2.332595399999999874e-01 3.452016399999999763e-01 3.676407500000000161e-01 3.654887199999999892e-01 3.997573899999999902e-01 3.517055599999999727e-01 3.810005499999999934e-01 3.645456799999999831e-01 2.653635999999999773e-01 2.727159299999999953e-01 2.561476200000000203e-01 2.818981300000000245e-01 2.752554300000000231e-01 2.254876700000000012e-01 2.642875800000000219e-01 2.520312499999999845e-01 2.164837900000000093e-01 2.187402499999999972e-01 2.063593099999999902e-01 1.804562000000000110e-01 8.711191799999999652e-02 4.473110500000000017e-02 1.154414700000000044e-01 9.355970900000000479e-02 7.613198999999999661e-02 6.086156499999999941e-02 -2.013271900000000031e-02 1.632144799999999882e-02 4.148929800000000084e-02 -3.038953200000000035e-02 -1.052101000000000078e-02 -7.744321200000000259e-03 -3.568929900000000072e-02 4.294659199999999871e-02 3.705082199999999715e-02 -4.132356000000000223e-03 8.166382599999999492e-02 9.976981399999999833e-02 1.236706100000000003e-01 1.587502399999999869e-01 1.384487799999999935e-01 1.743823200000000073e-01 1.874278600000000017e-01 2.585773399999999889e-01 3.042810799999999816e-01 3.048424299999999976e-01 4.106213699999999855e-01 4.277603200000000272e-01 3.989442999999999739e-01 4.879238499999999923e-01 4.788932599999999873e-01 4.188466299999999976e-01 5.199945599999999946e-01 5.608669899999999542e-01 5.065001399999999876e-01 5.480821000000000165e-01 5.653739199999999743e-01 5.398005099999999556e-01 6.165992900000000221e-01 6.575348100000000251e-01 5.864262500000000378e-01 5.585143799999999770e-01 6.069616500000000192e-01 6.865116300000000393e-01 6.862369099999999777e-01 6.341676299999999822e-01 6.213892100000000251e-01 6.344909600000000482e-01 6.599795899999999493e-01 5.883575100000000280e-01 6.285933400000000004e-01 6.977880100000000141e-01 5.944570000000000132e-01 5.956442699999999757e-01 6.527394399999999486e-01 6.684285300000000207e-01 6.535223700000000191e-01 7.119963999999999738e-01 7.526148000000000282e-01 6.808352500000000029e-01 6.963507199999999786e-01 6.734364699999999537e-01 6.900634199999999829e-01 7.974052299999999649e-01 8.110611500000000085e-01 7.752276900000000248e-01 7.562056600000000017e-01 7.749165999999999555e-01 7.744145599999999741e-01 7.857596900000000106e-01 7.654321200000000491e-01 7.625853500000000507e-01 8.167084799999999589e-01 7.193220200000000064e-01 6.168026300000000184e-01 5.896690100000000490e-01 5.582910500000000109e-01 5.926511500000000154e-01 6.030024999999999968e-01 5.132447399999999771e-01 3.774025799999999875e-01 2.209011600000000131e-01 1.414122999999999908e-01 1.762815500000000091e-01 3.201695399999999747e-01 3.435003799999999941e-01 -5.571865200000000046e-02 -4.938602799999999848e-01 -9.744771300000000247e-01 -1.539366500000000082e+00 -2.150494600000000034e+00 -2.770620599999999989e+00 -3.403633600000000037e+00 -4.003381599999999985e+00 -3.362323200000000067e+00 -3.097360600000000019e+00 -1.454136199999999990e+00
2.000000000000000000e+00 8.633907499999999846e-01 -5.196567699999999901e-01 -1.430021599999999893e+00 -2.179920200000000197e+00 -2.563066300000000020e+00 -2.672147999999999968e+00 -2.768066800000000161e+00 -2.638625699999999963e+00 -2.239691800000000121e+00 -1.624666500000000013e+00 -9.136448900000000428e-01 -5.025262499999999521e-01 -5.413486699999999763e-01 -6.090366600000000075e-01 -2.208700100000000055e-01 3.303117500000000151e-01 5.589228800000000108e-01 5.924721099999999963e-01 5.740843599999999602e-01 5.162929000000000546e-01 5.891868200000000000e-01 6.516787099999999944e-01 6.363380100000000095e-01 6.592412800000000406e-01 6.392265099999999700e-01 6.470539600000000391e-01 6.580371499999999596e-01 5.631722200000000011e-01 4.924106200000000211e-01 5.228824800000000383e-01 5.817362000000000366e-01 6.140566800000000214e-01 6.094823799999999903e-01 6.176839899999999606e-01 5.756858000000000253e-01 5.435602099999999881e-01 5.919991700000000190e-01 5.403036100000000452e-01 5.406125299999999800e-01 5.553782999999999914e-01 4.324070999999999887e-01 4.055279999999999996e-01 4.037463299999999866e-01 3.321738699999999822e-01 3.820740899999999773e-01 3.991767099999999902e-01 3.902945099999999834e-01 4.318065099999999767e-01 3.544272800000000112e-01 3.387152500000000233e-01 2.461337799999999965e-01 1.518065700000000018e-01 2.019886100000000129e-01 1.005405899999999991e-01 5.183439000000000102e-02 9.164286900000000180e-02 7.188159399999999311e-02 -7.288881300000000195e-03 -7.334643899999999939e-02 -3.119343899999999989e-02 -5.935324399999999945e-02 -1.423290799999999967e-01 -1.176074200000000042e-01 -9.655465400000000364e-02 -1.191292999999999935e-01 -1.330083400000000027e-01 -1.937328000000000106e-01 -1.948950100000000074e-01 -1.527871899999999894e-01 -2.001114999999999977e-01 -2.331711099999999870e-01 -1.940382499999999955e-01 -1.877960499999999922e-01 -2.318542799999999959e-01 -1.666996500000000048e-01 -5.998382599999999704e-02 -2.854674499999999837e-02 2.743864799999999951e-02 8.255138800000000332e-02 1.579556000000000016e-01 2.124279699999999937e-01 2.312838600000000078e-01 3.303687100000000099e-01 4.168975200000000214e-01 4.692206999999999906e-01 5.284943899999999806e-01 5.455311400000000255e-01 5.462356200000000328e-01 6.039375000000000160e-01 6.730013299999999532e-01 6.984139299999999606e-01 7.679146900000000109e-01 7.857680400000000009e-01 6.993666299999999891e-01 7.161032299999999795e-01 7.746649399999999686e-01 7.615755100000000111e-01 8.021910799999999453e-01 8.416669500000000248e-01 7.936351000000000377e-01 8.245383499999999755e-01 8.969379600000000341e-01 8.477443099999999454e-01 8.706861900000000265e-01 9.389820899999999915e-01 9.319258700000000450e-01 9.381718999999999475e-01 9.038399499999999476e-01 9.554750300000000029e-01 9.549236500000000127e-01 8.570215700000000103e-01 9.286548000000000025e-01 9.508743100000000004e-01 8.921105400000000074e-01 8.616608999999999519e-01 6.204467299999999463e-01 3.951349000000000111e-01 4.476053999999999866e-01 4.270104900000000203e-01 2.535922899999999980e-01 5.213958900000000007e-02 -1.031227100000000063e-01 -1.191329299999999980e-01 -2.502250200000000202e-01 -4.980536199999999747e-01 -4.792238099999999723e-01 -4.107177599999999873e-01 -6.302858300000000469e-01 -8.626121199999999822e-01 -1.132452299999999967e+00 -1.672190899999999925e+00 -2.230418199999999906e+00 -2.697570499999999871e+00 -3.110211699999999801e+00 -3.416756900000000208e+00 -3.467129900000000209e+00 -2.685596499999999942e+00 -1.252755300000000016e+00 -2.195776299999999959e-01 1.017250200000000104e+00
2.000000000000000000e+00 -5.708142600000000177e-01 -1.036820300000000028e+00 -1.161896899999999899e+00 -1.639332199999999906e+00 -1.813498400000000066e+00 -2.134982799999999958e+00 -2.285430100000000131e+00 -2.137418900000000122e+00 -1.899014200000000097e+00 -1.467982399999999910e+00 -9.997662200000000388e-01 -6.178564399999999512e-01 -4.362801399999999830e-01 -4.058091699999999968e-01 -3.634553500000000104e-01 -2.075704700000000069e-01 6.774334399999999701e-02 2.665304000000000006e-01 3.313047399999999865e-01 3.415623999999999882e-01 2.892330000000000179e-01 2.939321799999999874e-01 3.576145199999999913e-01 3.155282899999999890e-01 2.696238899999999772e-01 3.399812500000000126e-01 3.784037399999999884e-01 3.206589000000000245e-01 2.745720700000000014e-01 2.728042199999999862e-01 2.803148799999999885e-01 2.697127100000000222e-01 2.806977999999999973e-01 3.068689499999999737e-01 2.848798599999999848e-01 2.723541099999999826e-01 2.764455599999999791e-01 2.944554099999999730e-01 3.369737500000000163e-01 3.141302699999999892e-01 2.795752200000000132e-01 2.985574300000000125e-01 3.064734499999999806e-01 2.852851399999999926e-01 2.503845000000000098e-01 2.512438200000000066e-01 2.786170600000000275e-01 2.756184500000000148e-01 2.894216900000000092e-01 3.428831700000000149e-01 3.447041699999999764e-01 2.672962799999999972e-01 2.249056100000000058e-01 2.599832300000000096e-01 2.815246299999999979e-01 2.739251300000000167e-01 2.745720700000000014e-01 2.538718099999999755e-01 2.245626199999999906e-01 2.403104399999999863e-01 2.601493799999999856e-01 2.449378999999999862e-01 2.304952600000000074e-01 2.206937999999999955e-01 2.116209500000000021e-01 2.481497500000000023e-01 2.901180800000000004e-01 2.789438100000000142e-01 2.853783500000000029e-01 3.139668600000000143e-01 3.383748200000000206e-01 3.817251899999999920e-01 3.696846500000000035e-01 3.233095000000000274e-01 3.481320700000000157e-01 3.856539399999999729e-01 3.834933600000000053e-01 4.135005400000000275e-01 4.652101100000000100e-01 4.460295000000000232e-01 4.161561999999999761e-01 4.514341199999999943e-01 4.742461900000000119e-01 4.913177300000000081e-01 5.297830399999999829e-01 5.221336399999999545e-01 5.062268800000000457e-01 5.275321299999999880e-01 5.480904100000000279e-01 5.328874000000000111e-01 5.185211299999999968e-01 5.656533799999999834e-01 5.662093900000000346e-01 5.112528200000000522e-01 5.244623499999999661e-01 5.387597100000000028e-01 5.203931299999999815e-01 5.152399199999999624e-01 5.297830399999999829e-01 5.273865800000000492e-01 4.734162699999999724e-01 4.868776400000000004e-01 5.324548599999999743e-01 4.880230899999999927e-01 4.422747699999999837e-01 4.289700100000000127e-01 4.453694400000000053e-01 4.662665799999999861e-01 4.509639899999999813e-01 4.768745799999999924e-01 5.092131199999999636e-01 4.667038399999999809e-01 4.340789299999999740e-01 4.695480300000000051e-01 5.085130500000000220e-01 5.137579399999999685e-01 4.919208400000000259e-01 4.267862499999999781e-01 3.240530099999999747e-01 2.701804400000000217e-01 3.490418100000000079e-01 4.383399599999999730e-01 4.273960600000000221e-01 3.780154499999999751e-01 2.876809499999999908e-01 2.192383900000000052e-01 2.267200199999999943e-01 2.883229800000000065e-01 4.589355500000000254e-01 6.452344500000000149e-01 5.284113799999999861e-01 1.677033199999999891e-01 -4.005670700000000251e-01 -1.320395900000000067e+00 -1.829282300000000028e+00 -2.713968599999999842e+00 -3.751729699999999834e+00 -4.257513900000000184e+00 -5.756237999999999744e+00 -3.610742500000000188e+00
2.000000000000000000e+00 5.703568700000000158e-01 -3.113788599999999795e-01 -1.003933200000000081e+00 -1.623887499999999928e+00 -1.971989800000000015e+00 -2.248032600000000159e+00 -2.407499399999999845e+00 -2.416430099999999914e+00 -2.274648800000000026e+00 -1.987444999999999906e+00 -1.598397599999999974e+00 -1.080948800000000043e+00 -6.896742099999999542e-01 -5.563761999999999874e-01 -4.996543900000000038e-01 -3.676409500000000219e-01 -7.700915099999999791e-02 2.312177900000000064e-01 3.724862500000000187e-01 4.132171000000000038e-01 4.132934999999999803e-01 3.606756199999999746e-01 3.448214499999999738e-01 4.011330599999999857e-01 4.055717500000000086e-01 3.565572699999999817e-01 3.845304299999999786e-01 4.175349600000000105e-01 3.952641199999999966e-01 4.221102999999999938e-01 4.582099099999999980e-01 4.379252100000000092e-01 3.614456099999999728e-01 3.334690499999999891e-01 3.903578400000000115e-01 3.911023000000000138e-01 4.491402600000000134e-01 4.655490899999999987e-01 3.302457100000000256e-01 3.584015799999999974e-01 3.997680000000000122e-01 3.497193200000000002e-01 3.758093699999999759e-01 3.640870399999999729e-01 3.645992399999999911e-01 3.736113400000000140e-01 3.291140699999999808e-01 2.834016599999999997e-01 2.605448300000000050e-01 3.370847799999999728e-01 3.368813900000000028e-01 2.559317999999999871e-01 2.615148099999999864e-01 2.186932600000000004e-01 2.217904699999999896e-01 2.916074599999999850e-01 2.590808700000000186e-01 2.122490700000000119e-01 1.672601300000000069e-01 1.387666599999999861e-01 1.701809800000000095e-01 1.996344300000000016e-01 2.068238599999999983e-01 1.839009400000000127e-01 1.570240800000000103e-01 1.631918400000000047e-01 1.503127999999999964e-01 1.193379600000000068e-01 1.411382399999999981e-01 1.360717100000000124e-01 1.423523600000000111e-01 2.427384900000000012e-01 2.523351899999999870e-01 2.054688000000000070e-01 2.020547400000000104e-01 2.173649900000000079e-01 2.380890499999999965e-01 1.714182200000000100e-01 1.963685699999999923e-01 3.256463800000000131e-01 3.374003600000000103e-01 3.965048999999999935e-01 5.023168999999999551e-01 4.799181100000000089e-01 4.730831200000000236e-01 5.002765700000000315e-01 4.651275899999999797e-01 5.110277300000000134e-01 5.728918400000000410e-01 5.332664999999999766e-01 5.880758499999999556e-01 6.711404399999999493e-01 6.247289700000000501e-01 6.133690899999999502e-01 6.651920900000000136e-01 6.463303900000000324e-01 6.348330699999999993e-01 7.118346300000000237e-01 7.454496200000000350e-01 7.102525899999999615e-01 7.376290199999999686e-01 8.230591000000000435e-01 8.384418300000000546e-01 7.883608800000000416e-01 7.758354200000000533e-01 8.178809500000000510e-01 8.853188499999999905e-01 8.770762199999999620e-01 8.389451599999999676e-01 8.918106300000000486e-01 8.820057300000000433e-01 8.373695300000000286e-01 8.038138700000000414e-01 7.035880399999999701e-01 6.911244800000000410e-01 6.571531099999999848e-01 5.876056699999999688e-01 6.436963199999999885e-01 6.397945800000000016e-01 5.573144399999999665e-01 4.505404900000000157e-01 3.287017500000000148e-01 2.573986600000000013e-01 1.500311400000000073e-01 9.942290199999999356e-02 1.895517200000000069e-01 1.618071100000000040e-01 -5.904636099999999860e-02 -3.349621500000000140e-01 -7.620674100000000006e-01 -1.399470100000000050e+00 -1.991470099999999910e+00 -2.485588799999999932e+00 -3.102903400000000200e+00 -3.660367599999999833e+00 -4.036994100000000252e+00 -3.617250499999999924e+00 -2.477106000000000030e+00 -1.920644500000000088e+00 -4.230666399999999938e-01
4.000000000000000000e+00 -5.412339999999999929e-01 -1.107996900000000062e+00 -1.131167599999999940e+00 -1.482344899999999965e+00 -1.629773099999999975e+00 -1.670853300000000097e+00 -1.827390199999999965e+00 -1.855176399999999948e+00 -1.832966499999999943e+00 -1.782769199999999943e+00 -1.570008199999999965e+00 -1.191129499999999952e+00 -7.297585399999999556e-01 -4.002340400000000131e-01 -2.810602400000000167e-01 -2.175532900000000103e-01 -1.121227100000000004e-01 6.143570100000000228e-02 2.488928800000000108e-01 3.382070999999999827e-01 4.023894399999999871e-01 5.042536199999999580e-01 5.177527499999999838e-01 4.488552399999999887e-01 4.135427099999999800e-01 4.042809900000000067e-01 4.002185400000000115e-01 4.157039900000000232e-01 4.171768800000000277e-01 4.154450900000000169e-01 4.620984399999999992e-01 4.907872400000000135e-01 4.213415999999999828e-01 3.343202800000000252e-01 3.085111400000000170e-01 3.164727900000000038e-01 3.487061599999999872e-01 3.931561299999999926e-01 4.235226200000000163e-01 4.493327400000000083e-01 4.619491800000000148e-01 4.723821200000000164e-01 4.748418200000000255e-01 4.259755599999999753e-01 3.986860999999999877e-01 4.045298199999999844e-01 3.706731600000000015e-01 3.819829499999999878e-01 4.013316800000000240e-01 3.349024099999999837e-01 3.560867300000000180e-01 4.476745799999999886e-01 4.359744099999999789e-01 4.528341599999999856e-01 5.360570700000000244e-01 5.380222199999999955e-01 5.138384799999999863e-01 5.222100800000000209e-01 5.015856199999999543e-01 4.582087899999999769e-01 4.269311399999999868e-01 4.121469400000000172e-01 4.218238699999999897e-01 4.616303800000000068e-01 4.977314700000000092e-01 4.889947499999999780e-01 4.617749800000000016e-01 4.672965299999999877e-01 5.087751799999999935e-01 5.618294900000000425e-01 6.165071300000000143e-01 6.632290699999999761e-01 6.690878999999999577e-01 6.443686400000000480e-01 6.365809300000000448e-01 6.199607900000000393e-01 5.749083299999999674e-01 5.586870600000000131e-01 5.865380900000000119e-01 6.502075800000000072e-01 7.351235099999999800e-01 7.495650400000000158e-01 6.969479299999999933e-01 7.046853499999999881e-01 7.466814000000000506e-01 7.182837899999999776e-01 6.812980400000000492e-01 6.935813299999999959e-01 6.633298100000000197e-01 5.952433200000000202e-01 6.076635000000000231e-01 6.587116400000000427e-01 6.492835399999999924e-01 6.342279899999999637e-01 6.391330800000000201e-01 5.905086600000000185e-01 5.576272599999999580e-01 6.156630600000000397e-01 6.312958100000000128e-01 5.916247199999999928e-01 6.098147200000000323e-01 6.304062599999999961e-01 6.414493599999999685e-01 6.679473599999999900e-01 6.406326300000000362e-01 6.273222000000000520e-01 6.655530200000000507e-01 6.342141300000000426e-01 5.466729000000000172e-01 4.632000700000000193e-01 3.742996100000000048e-01 3.446383599999999769e-01 4.081501900000000238e-01 4.933364900000000164e-01 5.599536099999999905e-01 5.766510599999999931e-01 4.814795900000000128e-01 3.030557099999999782e-01 1.457563900000000134e-01 3.397625099999999898e-02 -7.182092900000000557e-02 -1.566463399999999950e-01 -2.261170399999999914e-01 -3.568832699999999747e-01 -5.508272199999999508e-01 -7.703172200000000247e-01 -1.087714800000000093e+00 -1.544049299999999958e+00 -1.999185100000000048e+00 -2.414152599999999982e+00 -2.825314800000000126e+00 -3.257902500000000146e+00 -3.668113200000000074e+00 -3.651150100000000176e+00 -3.203967299999999963e+00 -2.640104399999999796e+00 -1.729670800000000064e+00 -1.105963900000000111e+00 -1.096950400000000103e+00 -4.376029099999999977e-02
2.000000000000000000e+00 2.952292900000000220e+00 2.143870300000000118e+00 9.220087000000000144e-01 -6.900001500000000343e-01 -2.247328399999999782e+00 -2.504261000000000070e+00 -2.055691400000000169e+00 -1.427071900000000060e+00 -6.626467000000000329e-01 -3.302820499999999937e-01 -2.719038999999999762e-01 1.946291300000000113e-01 5.538328900000000221e-01 5.912181699999999873e-01 5.825219699999999445e-01 5.641691699999999976e-01 5.225625299999999696e-01 5.800599499999999908e-01 5.743936499999999779e-01 4.925244100000000236e-01 5.245786300000000457e-01 5.270089500000000315e-01 5.155065500000000078e-01 4.886240399999999817e-01 4.948875999999999831e-01 4.641368300000000002e-01 4.347902399999999945e-01 3.828785699999999736e-01 3.851930000000000076e-01 3.010068699999999819e-01 3.007243700000000186e-01 2.457239300000000071e-01 2.083098200000000066e-01 1.734030199999999911e-01 1.588877399999999995e-01 5.289650199999999802e-02 -2.211658799999999953e-02 7.575931800000000431e-03 -5.423809300000000111e-02 -9.843000500000000097e-02 -1.369917900000000022e-01 -2.028993299999999889e-01 -2.614048500000000219e-01 -3.075339999999999741e-01 -3.362567300000000037e-01 -3.170310499999999809e-01 -3.160674900000000065e-01 -3.172603999999999980e-01 -2.631546300000000005e-01 -2.155355100000000135e-01 -2.255867000000000011e-01 -9.077336099999999686e-02 -5.552772599999999947e-02 9.614419500000000521e-03 1.038475900000000035e-01 1.409750200000000064e-01 1.735155499999999906e-01 2.154689300000000030e-01 2.248315399999999964e-01 3.018978900000000021e-01 3.503069400000000111e-01 3.864048299999999769e-01 2.692607900000000276e-01 3.890263400000000260e-01 3.984417399999999887e-01 3.619564000000000115e-01 3.745714900000000069e-01 3.596860100000000005e-01 3.909234400000000109e-01 3.243354099999999907e-01 3.900791699999999751e-01 2.940141600000000244e-01 3.703050399999999742e-01 3.705055099999999824e-01 3.506500200000000067e-01 4.179265799999999920e-01 4.081062100000000248e-01 3.899306000000000161e-01 4.281553499999999901e-01 4.372852500000000142e-01 4.724953000000000070e-01 5.151601700000000283e-01 4.658196600000000243e-01 4.834643399999999924e-01 5.166204500000000088e-01 5.682945000000000357e-01 4.866591000000000111e-01 5.958155000000000534e-01 5.734020199999999567e-01 5.018969899999999873e-01 5.716537000000000424e-01 5.273138200000000442e-01 4.645887000000000211e-01 5.492829399999999973e-01 5.711227100000000334e-01 4.805724699999999738e-01 3.841581299999999866e-01 3.805492500000000056e-01 4.070918600000000276e-01 3.742835099999999859e-01 3.555413299999999888e-01 3.004086899999999782e-01 2.344874000000000125e-01 2.487609299999999912e-01 3.241373000000000171e-01 2.594406799999999791e-01 2.147536399999999956e-01 2.284089300000000100e-01 2.368562100000000115e-01 1.642432400000000126e-01 1.904485399999999995e-01 1.907395699999999972e-01 1.181411400000000056e-01 1.160526999999999948e-01 1.626723599999999881e-01 1.500068800000000091e-01 1.981137199999999932e-01 2.465796399999999888e-01 3.197454499999999866e-01 3.817885899999999832e-01 2.777243300000000192e-01 1.385898700000000039e-01 3.066718999999999973e-01 4.706442399999999915e-01 3.067305499999999907e-01 2.526707300000000100e-01 2.506062400000000009e-02 -1.194430400000000003e-01 -1.776378100000000071e-01 -3.383032499999999998e-01 -8.234476299999999860e-01 -1.540932299999999922e+00 -2.325400600000000040e+00 -2.898636000000000212e+00 -3.769705999999999779e+00 -4.546902300000000174e+00 -4.445543299999999753e+00 -3.619892500000000179e+00 -2.153065999999999924e+00 -1.112998399999999943e+00
2.000000000000000000e+00 -6.098596899999999543e-01 -9.551111399999999696e-01 -1.050199700000000069e+00 -1.529373700000000058e+00 -1.584853800000000090e+00 -1.980893400000000026e+00 -2.175910800000000034e+00 -2.099942299999999928e+00 -1.847231000000000067e+00 -1.482936000000000032e+00 -9.991666700000000345e-01 -5.753388799999999970e-01 -3.649944099999999914e-01 -3.123868599999999884e-01 -2.338575200000000132e-01 -7.861439799999999853e-03 1.933613700000000046e-01 3.101814500000000252e-01 3.144799200000000239e-01 2.995844500000000021e-01 2.912569099999999800e-01 2.814047000000000076e-01 3.612991899999999923e-01 3.279434600000000199e-01 3.231299300000000096e-01 3.684412699999999874e-01 3.643523900000000260e-01 3.260379899999999997e-01 2.674786900000000189e-01 3.385291000000000272e-01 3.719473699999999994e-01 3.588505300000000009e-01 3.387458099999999805e-01 3.256169099999999816e-01 3.182933499999999749e-01 2.814047000000000076e-01 3.400835300000000228e-01 3.592150900000000147e-01 2.900149300000000041e-01 2.668520799999999915e-01 2.921932799999999997e-01 2.926384300000000049e-01 2.674786900000000189e-01 2.892209800000000164e-01 3.223660999999999888e-01 3.141072400000000098e-01 2.771624300000000152e-01 2.476739799999999880e-01 2.407753599999999938e-01 2.535526900000000250e-01 2.679832100000000272e-01 2.671103200000000122e-01 2.743536599999999992e-01 2.491201399999999899e-01 2.017380099999999954e-01 2.200210099999999891e-01 2.535526900000000250e-01 2.219055500000000070e-01 1.763965899999999920e-01 1.758002100000000123e-01 1.961692100000000105e-01 2.255542500000000117e-01 2.761431699999999934e-01 2.814047000000000076e-01 2.644741800000000032e-01 2.960987299999999767e-01 2.808442199999999778e-01 3.085982400000000236e-01 3.355062100000000269e-01 3.123174400000000017e-01 3.928127499999999883e-01 4.155100899999999986e-01 3.825663100000000205e-01 4.403559000000000223e-01 4.615895500000000151e-01 4.272644999999999915e-01 4.390298100000000203e-01 4.345907600000000204e-01 4.398366100000000167e-01 5.080437899999999951e-01 5.053558099999999609e-01 4.538591699999999785e-01 4.339692499999999731e-01 4.752104699999999959e-01 5.320728099999999516e-01 4.662917799999999890e-01 4.036208800000000152e-01 4.250949900000000059e-01 4.088129300000000188e-01 4.187447499999999989e-01 4.323072199999999921e-01 4.067387499999999823e-01 4.331534599999999902e-01 4.181594900000000226e-01 3.945315899999999876e-01 3.642122099999999807e-01 4.118049200000000187e-01 4.957364499999999952e-01 4.624427799999999977e-01 4.740933700000000139e-01 4.539516000000000107e-01 4.229016899999999968e-01 4.493915099999999940e-01 4.473795600000000094e-01 4.705152200000000118e-01 5.042207899999999743e-01 4.712105100000000268e-01 4.525478399999999790e-01 4.897359499999999755e-01 4.772030299999999725e-01 4.723935499999999954e-01 5.436583200000000282e-01 5.320728099999999516e-01 5.297684599999999966e-01 6.333948200000000250e-01 5.604829799999999640e-01 5.258012499999999978e-01 4.979402800000000129e-01 2.940208500000000003e-01 2.674786900000000189e-01 3.749850200000000022e-01 4.962442899999999768e-01 5.838134400000000168e-01 5.771091400000000204e-01 5.076043500000000375e-01 4.442836900000000089e-01 4.624427799999999977e-01 5.469982899999999981e-01 6.043232899999999574e-01 4.855567499999999814e-01 2.046106500000000050e-01 -3.591342000000000145e-01 -1.015288900000000050e+00 -1.710014200000000040e+00 -2.443794500000000092e+00 -3.162395500000000137e+00 -4.443807200000000179e+00 -4.482796200000000120e+00 -4.940659499999999760e+00 -3.074813100000000077e+00
2.000000000000000000e+00 -9.708070699999999942e-01 -1.901991999999999905e+00 -2.546933300000000067e+00 -3.330188000000000148e+00 -3.602302900000000196e+00 -3.479095200000000165e+00 -3.096521000000000079e+00 -2.517443500000000167e+00 -1.755859599999999965e+00 -1.244045999999999985e+00 -1.118797000000000041e+00 -1.022275199999999939e+00 -5.573153199999999474e-01 -1.766267199999999871e-01 -1.349037700000000062e-01 -1.139979599999999954e-01 -1.333070699999999997e-01 -1.779845700000000086e-01 -4.966452200000000261e-02 9.221409499999999593e-02 -3.771457899999999808e-02 -1.567673099999999931e-01 -1.428261000000000114e-01 -1.741222099999999995e-01 -1.625158600000000120e-01 -2.033932999999999991e-01 -2.269020999999999955e-01 -1.842786100000000094e-01 -1.098140900000000031e-01 -3.702193399999999940e-02 -1.223071700000000067e-01 -2.161048100000000083e-01 -3.337347700000000139e-01 -2.144139800000000040e-01 -1.895659100000000041e-01 -2.698441300000000154e-01 -1.807667599999999986e-01 -2.304799600000000115e-01 -2.906799700000000097e-01 -2.601626000000000216e-01 -2.943358999999999837e-01 -3.107516499999999904e-01 -2.506841699999999840e-01 -2.806278199999999723e-01 -4.100486799999999987e-01 -4.317207200000000022e-01 -3.696722000000000063e-01 -3.708925399999999928e-01 -4.947303299999999959e-01 -4.118294900000000203e-01 -5.281616900000000170e-01 -5.168899500000000424e-01 -4.989601100000000122e-01 -4.944531799999999921e-01 -5.555227000000000359e-01 -6.541005300000000133e-01 -6.284385000000000110e-01 -6.990370399999999984e-01 -7.302300800000000036e-01 -6.079534800000000461e-01 -4.683743300000000054e-01 -5.382453499999999558e-01 -5.327907499999999796e-01 -5.327153100000000530e-01 -5.154124399999999717e-01 -5.126156099999999993e-01 -4.960320300000000127e-01 -5.125952400000000075e-01 -5.658422899999999700e-01 -5.389293499999999737e-01 -3.775409100000000073e-01 -2.885301699999999747e-01 -2.174129499999999937e-01 -2.169328399999999879e-01 -2.638672400000000029e-01 -1.018325699999999973e-01 -3.544290900000000161e-02 -5.756630699999999712e-02 -9.551381600000000138e-02 -4.526885900000000157e-02 5.603233900000000045e-02 8.042317200000000110e-02 9.976422100000000015e-02 1.315077900000000133e-01 2.078106299999999962e-01 1.005265899999999990e-01 9.820583300000000626e-02 1.415250899999999923e-01 1.861732799999999965e-01 2.916309999999999736e-01 2.299604199999999987e-01 1.687077499999999897e-01 1.778384899999999880e-01 3.840603499999999948e-01 3.996003300000000036e-01 4.664504800000000007e-01 2.935686000000000129e-01 2.752186300000000196e-01 3.156971299999999925e-01 3.398501999999999912e-01 4.723700900000000202e-01 4.094740499999999783e-01 3.994972800000000102e-01 4.576989599999999880e-01 4.694432399999999839e-01 5.453061200000000053e-01 6.096067899999999540e-01 6.449114400000000025e-01 6.813067099999999821e-01 6.406915699999999880e-01 6.131818900000000072e-01 7.319661800000000218e-01 7.332977600000000207e-01 8.167450600000000227e-01 8.400511699999999582e-01 8.754358199999999757e-01 8.907011099999999626e-01 9.045509000000000466e-01 9.828149099999999860e-01 9.702655000000000030e-01 9.538211399999999562e-01 1.006748799999999999e+00 1.183316500000000104e+00 1.264429299999999978e+00 1.506973099999999954e+00 1.846532000000000062e+00 1.845047499999999951e+00 1.710903999999999980e+00 1.406710700000000092e+00 1.127370900000000065e+00 1.064490500000000006e+00 1.172205900000000023e+00 1.917600200000000088e+00 2.502312299999999823e+00 2.237876799999999999e+00 1.815051299999999923e+00 1.493310600000000044e+00 1.570781500000000053e+00 1.357842500000000063e+00 9.165702900000000097e-01
1.000000000000000000e+00 -2.571137300000000181e+00 -4.456947999999999688e+00 -4.274227100000000057e+00 -4.078120400000000423e+00 -3.445539300000000082e+00 -2.232094099999999859e+00 -1.422893500000000033e+00 -1.297397399999999923e+00 -6.178814500000000542e-01 -2.443083000000000060e-01 -2.025876699999999975e-01 -2.577202299999999946e-01 -2.707218399999999914e-01 -2.261600599999999961e-01 -2.756381399999999759e-01 -1.545611199999999963e-01 -1.947676200000000024e-01 -1.969334899999999888e-01 -2.502351400000000226e-01 -2.563902900000000207e-01 -2.614528199999999747e-01 -2.980107300000000015e-01 -3.650477599999999989e-01 -2.806513600000000164e-01 -3.716498999999999775e-01 -4.030472399999999733e-01 -4.234789800000000048e-01 -4.326854199999999873e-01 -4.449245700000000192e-01 -6.431395699999999938e-01 -5.251496399999999731e-01 -4.777232200000000040e-01 -6.509717499999999601e-01 -5.679500400000000448e-01 -7.160859899999999501e-01 -6.024337600000000403e-01 -5.872479000000000449e-01 -6.495247200000000554e-01 -4.734483800000000020e-01 -5.351419299999999879e-01 -4.391473900000000263e-01 -3.753473999999999977e-01 -4.540952699999999953e-01 -2.166672000000000042e-01 -1.696978000000000097e-01 1.873243900000000003e-02 4.380554300000000234e-02 -4.163813000000000236e-02 9.362982599999999933e-02 8.033527499999999766e-02 8.581997800000000509e-02 5.594548500000000313e-02 1.455962100000000037e-01 1.378319699999999981e-01 1.344568399999999941e-01 1.622850600000000088e-01 2.026223199999999947e-01 1.385769199999999923e-01 1.436399399999999937e-01 1.940243299999999949e-01 2.102922700000000034e-01 2.034411000000000136e-01 2.676906199999999902e-01 2.392455699999999907e-01 3.312798299999999974e-01 3.528245600000000093e-01 3.575466500000000214e-01 4.458518699999999835e-01 3.992449699999999768e-01 5.174955399999999761e-01 5.006114600000000081e-01 5.054200699999999991e-01 6.238832600000000506e-01 5.789808699999999808e-01 5.106693500000000219e-01 5.647770899999999816e-01 5.769438599999999751e-01 5.798959900000000278e-01 5.310315300000000294e-01 5.745738500000000526e-01 5.910676099999999655e-01 5.646810300000000282e-01 5.312962199999999857e-01 4.376011000000000206e-01 4.058528900000000217e-01 4.745420900000000275e-01 3.980401100000000025e-01 3.885053199999999873e-01 4.389370699999999847e-01 4.152857500000000091e-01 3.368329600000000146e-01 3.055693800000000016e-01 4.008615500000000109e-01 4.126409200000000221e-01 5.958013899999999863e-01 7.284911899999999552e-01 8.953728899999999769e-01 1.100271900000000080e+00 1.272100100000000067e+00 1.425428899999999999e+00 1.598216199999999976e+00 1.801936200000000099e+00 1.913234499999999949e+00 1.812769499999999923e+00 1.704921600000000037e+00 1.636717100000000036e+00 1.388117800000000068e+00 1.278533300000000095e+00 9.800329500000000138e-01 7.361482499999999485e-01 2.740926900000000277e-01 -1.087805599999999984e-01 -2.310454700000000028e-01 -2.662659299999999840e-01 -3.294205299999999892e-01 -2.801007899999999884e-01 -2.879513400000000001e-01 -2.443488600000000011e-01 -2.177818199999999871e-01 -2.968785400000000241e-01 -3.125178399999999912e-01 -3.045944400000000218e-01 -2.559703400000000184e-01 -2.584317600000000104e-01 -3.309735400000000105e-01 -4.362243399999999882e-01 -3.530621099999999846e-01 -2.774729599999999907e-01 -3.534517300000000056e-02 4.415676900000000127e-01 6.313029300000000399e-01 6.245263699999999973e-01 8.185578399999999810e-01 8.215393500000000016e-01 9.913848899999999631e-01 8.925535700000000183e-01 9.903642099999999671e-01 1.122788200000000014e+00 3.574681200000000003e-01 -2.285168200000000205e+00
