2.000000000000000000e+00 -9.175788000000000277e-01 -1.524054400000000031e+00 -1.926942900000000014e+00 -2.230329799999999807e+00 -2.446132899999999832e+00 -2.575327000000000144e+00 -2.382289600000000007e+00 -2.101296599999999959e+00 -1.591670600000000046e+00 -1.080328699999999920e+00 -8.556765200000000515e-01 -7.844605000000000050e-01 -4.817055299999999929e-01 -1.892436600000000080e-01 -1.986336200000000107e-01 -1.373788699999999863e-01 -1.851832700000000109e-01 -1.579543700000000106e-01 -1.895016999999999951e-01 -2.036461900000000047e-01 -1.933920600000000045e-01 -1.330155699999999996e-01 -5.613434600000000163e-02 -1.270455500000000071e-01 -7.116942800000000680e-02 -1.070047699999999991e-01 -1.439949299999999932e-01 -1.283774400000000093e-01 -9.557424500000000211e-02 -1.357017699999999993e-01 -1.937033599999999911e-01 -1.149169000000000024e-01 -7.705843199999999615e-02 -5.281401299999999993e-02 -8.509210400000000174e-02 -8.482665899999999870e-02 -1.194649799999999984e-01 -1.172495699999999974e-01 -1.004078300000000035e-01 -1.509932999999999970e-01 -1.615667600000000037e-01 -2.301047699999999863e-01 -1.367796099999999959e-01 -1.143977600000000011e-01 -1.912920600000000138e-01 -1.159582599999999936e-01 -6.892279299999999609e-02 -6.436763199999999407e-02 -5.407904399999999973e-02 -9.441365999999999647e-03 -3.577955599999999708e-02 -8.773491299999999771e-02 -8.908333799999999802e-02 -7.204118800000000600e-02 -1.976860800000000001e-02 9.963176400000000807e-03 3.190069899999999764e-02 2.415000299999999975e-02 -7.489077500000000664e-02 -5.539146899999999873e-02 -1.573862800000000103e-02 1.204640099999999998e-02 5.858508999999999939e-02 4.226973299999999684e-02 -3.608060099999999687e-02 -3.827105399999999880e-02 -6.089932299999999826e-02 -2.366031199999999932e-02 -1.375738200000000133e-01 -9.285699499999999773e-02 -1.510144499999999945e-01 -9.410850199999999666e-02 -1.199009399999999975e-01 -1.107092999999999966e-01 -1.022622100000000062e-01 -1.797680000000000111e-01 -1.254482600000000059e-01 -1.567095500000000030e-01 -1.858938199999999874e-01 -1.139271099999999981e-01 -9.159250100000000672e-02 -1.158330800000000049e-01 -1.173697699999999983e-01 -7.152281500000000347e-02 -1.428666600000000064e-01 -1.087815699999999941e-01 -8.470434799999999875e-02 -8.958427600000000435e-02 -5.016074999999999701e-02 -4.490420700000000154e-02 1.749055899999999927e-02 5.093734500000000193e-02 2.757543299999999989e-04 1.226073100000000041e-02 2.803341999999999987e-02 1.946515600000000082e-02 4.083885899999999819e-02 5.034029999999999755e-02 -4.345910599999999735e-02 -8.753249999999999920e-02 -7.288162500000000543e-02 -8.272136200000000661e-02 -5.598481699999999922e-02 2.732942899999999883e-02 5.607596000000000108e-02 1.050194299999999969e-01 1.783729199999999904e-01 1.893815000000000082e-01 2.841457800000000145e-01 4.791052100000000036e-01 6.480667500000000247e-01 7.217449799999999804e-01 7.127362299999999706e-01 8.686814200000000374e-01 1.107389600000000085e+00 1.247574500000000031e+00 1.402834700000000101e+00 1.556366399999999928e+00 1.708700499999999955e+00 1.847138399999999958e+00 2.127452299999999852e+00 2.270086899999999908e+00 2.332840599999999931e+00 2.520423500000000150e+00 2.634551999999999783e+00 2.639111999999999902e+00 2.437058500000000016e+00 2.095294800000000013e+00 1.989200400000000091e+00 1.571681099999999942e+00 1.071384600000000020e+00 7.832145499999999538e-01 6.555036499999999933e-01 6.584390500000000257e-01 4.018363600000000035e-01 -5.951410400000000100e-01 -1.718071399999999915e+00 -2.342013699999999865e+00 -2.890402200000000033e+00 -3.148077999999999932e+00
2.000000000000000000e+00 -1.604440400000000169e-02 -4.195881799999999773e-01 -4.521030300000000168e-01 -8.427753799999999629e-01 -8.082262799999999636e-01 -1.197056399999999909e+00 -1.235963399999999934e+00 -1.229240700000000075e+00 -9.874342600000000081e-01 -6.573628099999999641e-01 -2.263644499999999948e-01 1.066814299999999938e-01 2.099800500000000014e-01 2.175148799999999938e-01 3.893415399999999860e-01 6.493712699999999449e-01 7.428370699999999882e-01 7.598077399999999537e-01 7.907385999999999582e-01 7.396613499999999952e-01 6.937857499999999789e-01 6.843316400000000188e-01 6.838971799999999934e-01 7.477444100000000260e-01 6.933799000000000490e-01 6.290306199999999848e-01 7.049709899999999640e-01 6.448696800000000007e-01 5.976210499999999870e-01 6.578921899999999878e-01 6.280607299999999560e-01 6.185363099999999781e-01 5.813411600000000234e-01 5.909376899999999599e-01 5.656631399999999532e-01 5.612424999999999775e-01 5.402905599999999753e-01 4.795127000000000139e-01 5.396181500000000186e-01 5.316377899999999990e-01 4.966107100000000107e-01 4.993935299999999744e-01 4.679331099999999855e-01 4.452318399999999898e-01 4.567165499999999989e-01 4.546840100000000273e-01 4.132339300000000271e-01 3.949199999999999933e-01 4.088640900000000133e-01 4.047637800000000174e-01 3.783056799999999775e-01 3.297373200000000004e-01 3.363951600000000264e-01 3.322453799999999791e-01 2.833001600000000231e-01 2.864697500000000230e-01 3.114667400000000197e-01 3.176182399999999961e-01 3.303444500000000117e-01 3.086210500000000079e-01 2.600006499999999998e-01 2.593146399999999852e-01 2.742531699999999906e-01 2.757573500000000122e-01 2.864890999999999965e-01 3.284067800000000092e-01 3.353253900000000010e-01 2.896601599999999999e-01 3.131583700000000192e-01 3.225581699999999774e-01 2.731456600000000123e-01 2.860902499999999904e-01 2.957590800000000075e-01 3.231216900000000170e-01 2.748405500000000168e-01 2.894776700000000202e-01 3.037993299999999786e-01 2.325677200000000056e-01 2.405440399999999868e-01 2.494223499999999871e-01 2.600006499999999998e-01 2.260982500000000006e-01 2.095268700000000039e-01 2.100259899999999957e-01 2.096293399999999973e-01 1.693905900000000075e-01 1.408275300000000063e-01 1.412379199999999890e-01 1.136562299999999970e-01 1.339238600000000057e-01 1.416956299999999891e-01 1.169894999999999963e-01 1.372715499999999922e-01 1.573319499999999982e-01 1.537367299999999881e-01 1.298962100000000119e-01 1.202027100000000043e-01 1.341520700000000121e-01 1.100386700000000051e-01 8.993685799999999453e-02 8.911561899999999314e-02 1.107747199999999932e-01 1.733693099999999987e-01 1.965947200000000006e-01 2.005590200000000045e-01 1.836930499999999966e-01 1.799688500000000135e-01 2.468771700000000069e-01 2.586855800000000261e-01 2.659185900000000102e-01 2.994356599999999924e-01 2.643748200000000104e-01 2.698708599999999902e-01 2.860969300000000271e-01 2.970546600000000259e-01 2.592264499999999972e-01 2.072103200000000034e-01 1.636649500000000035e-01 6.854662100000000202e-02 -3.791735899999999770e-02 -1.604440400000000169e-02 1.588661700000000010e-01 1.823853800000000136e-01 2.409292700000000009e-01 2.638211400000000095e-01 2.165797799999999995e-01 1.358248099999999903e-01 -1.573527599999999943e-02 -7.588029300000000144e-02 -2.129617199999999932e-01 -5.549895200000000139e-01 -1.047787000000000024e+00 -1.714989300000000050e+00 -2.324447900000000011e+00 -3.138194599999999834e+00 -3.629828499999999902e+00 -4.872557200000000144e+00 -4.554154699999999778e+00 -5.085749899999999712e+00 -3.322462300000000202e+00
1.000000000000000000e+00 -9.221383699999999850e-01 -3.122358600000000095e+00 -4.131867699999999921e+00 -4.645641600000000260e+00 -3.983298700000000192e+00 -3.053100300000000100e+00 -1.872946299999999953e+00 -1.471000400000000097e+00 -9.580706199999999839e-01 -5.405169699999999855e-01 -1.921765599999999963e-01 3.682367900000000065e-03 -1.357010499999999897e-01 -4.919708799999999993e-01 -2.980480300000000193e-01 -4.452198100000000214e-02 -2.527042700000000086e-01 -3.331806600000000174e-01 -2.454485999999999890e-01 -3.693360399999999766e-01 -5.984805399999999498e-01 -3.969396499999999772e-01 -1.722489500000000118e-01 -6.384480799999999734e-01 -5.546983500000000067e-01 -3.658888299999999982e-01 -5.641664400000000468e-01 -4.789126200000000111e-01 -7.280933000000000543e-01 -6.661271399999999510e-01 -4.560472199999999754e-01 -6.967099700000000118e-01 -8.155033000000000420e-01 -7.735436500000000271e-01 -7.651466799999999679e-01 -3.498863600000000074e-01 -4.947487700000000044e-01 -7.525915399999999478e-01 -8.222067199999999465e-01 -6.430751099999999498e-01 -6.082088500000000231e-01 -4.312973800000000080e-01 -3.067383599999999877e-01 -3.005509499999999834e-01 -2.813227799999999945e-01 -8.023730399999999541e-02 3.040838000000000152e-01 3.772356600000000004e-02 -1.540587999999999957e-01 6.694291699999999588e-03 7.198357399999999462e-02 -7.681431299999999518e-02 -6.162507099999999655e-02 -3.194178699999999926e-02 1.844329700000000016e-01 3.176021900000000099e-03 -3.979043000000000163e-02 2.929485199999999900e-01 7.937726100000000451e-02 -8.352564899999999348e-02 7.808851999999999460e-02 5.107410500000000297e-01 2.405830800000000047e-01 -1.946873100000000023e-01 2.966406300000000162e-01 2.880773699999999993e-01 3.386506200000000133e-01 1.653812400000000127e-01 1.117646000000000056e-01 4.275858699999999790e-01 5.977422999999999487e-01 5.982725500000000141e-01 3.476595599999999786e-01 2.812511100000000264e-01 4.569870899999999847e-01 7.057787300000000208e-01 9.140897199999999945e-01 5.851907299999999923e-01 4.205579300000000242e-01 3.683251499999999901e-01 6.634748499999999494e-01 8.043477199999999883e-01 5.132328699999999522e-01 2.279164200000000085e-01 3.281466499999999842e-01 6.792756100000000297e-01 6.002291800000000288e-01 3.242210999999999843e-01 4.730089599999999783e-01 5.779503799999999858e-01 5.410112599999999938e-01 3.899026299999999723e-01 3.125412599999999874e-01 1.414495500000000072e-01 3.713620400000000044e-01 5.304792999999999870e-01 3.701766499999999960e-01 6.412290499999999671e-01 1.114365899999999909e+00 1.211744699999999897e+00 8.698499499999999829e-01 1.237540400000000096e+00 2.072737200000000168e+00 1.966230499999999992e+00 1.468897600000000025e+00 1.634822699999999962e+00 1.559061500000000100e+00 1.173486100000000087e+00 1.049567600000000045e+00 9.302245199999999992e-01 7.076016400000000317e-01 4.129540899999999959e-01 -2.284299300000000033e-01 -2.514837899999999848e-01 2.036404299999999834e-02 -1.786020200000000002e-01 -3.927150799999999942e-01 -3.641789799999999855e-01 -2.872134399999999865e-01 -1.347987200000000108e-01 -4.141633499999999857e-02 -2.986392299999999778e-01 -3.755630400000000146e-01 -1.833509100000000058e-01 6.055141700000000321e-02 1.230589799999999984e-01 -1.074135300000000036e-02 -2.142964199999999875e-01 -8.824761400000000200e-02 6.909313200000000155e-01 1.200065099999999996e+00 1.316515799999999903e+00 1.570852600000000043e+00 1.188752000000000031e+00 9.325126200000000143e-01 8.871368600000000271e-01 1.208143299999999920e+00 1.243274999999999908e+00 7.616584899999999658e-01 -1.322360999999999898e+00
1.000000000000000000e+00 -1.062641099999999950e-01 -1.871106200000000053e+00 -2.717852000000000157e+00 -3.862973000000000212e+00 -4.440775099999999753e+00 -4.024691999999999936e+00 -2.840627399999999803e+00 -1.649672999999999945e+00 -1.417167300000000019e+00 -9.081301299999999799e-01 -3.073810399999999943e-01 -2.171750799999999926e-01 -1.643806700000000065e-01 -1.921309099999999881e-01 -2.237015499999999990e-01 -2.087745099999999965e-01 -1.534031899999999948e-01 -2.783760200000000018e-01 -1.386532500000000057e-01 -6.742005199999999768e-03 -1.042280700000000060e-01 -2.149024499999999949e-01 -1.563637300000000063e-01 -9.533664399999999817e-02 -1.544426399999999922e-01 -2.566900400000000082e-01 -1.924787000000000026e-01 -2.396300600000000058e-01 -2.636481600000000203e-01 -2.326741999999999977e-01 -3.315592199999999878e-01 -4.075905699999999854e-01 -4.026488899999999815e-01 -4.006825099999999917e-01 -3.133110599999999746e-01 -3.001984100000000266e-01 -3.990508199999999728e-01 -3.801892399999999839e-01 -5.504129500000000119e-01 -4.141602799999999918e-01 -3.249752799999999775e-01 -2.763872900000000077e-01 -1.312045300000000136e-01 -5.032250700000000243e-02 -7.733312200000000067e-03 8.572113400000000438e-02 9.780183400000000415e-02 -6.467649999999999788e-02 1.402492899999999987e-01 9.056818699999999445e-02 5.990854899999999844e-02 2.138348800000000050e-01 6.467810300000000068e-02 5.372131599999999813e-02 3.582433699999999777e-02 -2.468721899999999983e-02 -3.439635099999999862e-02 -4.303328199999999909e-02 1.295874099999999862e-01 2.725451300000000104e-02 -1.006749100000000063e-01 -1.877525199999999965e-03 -1.229982299999999966e-02 7.468651499999999499e-02 8.656120000000000481e-02 -7.162656900000000104e-02 2.099452699999999894e-01 3.078912699999999947e-01 2.498553199999999919e-01 3.697289400000000059e-01 3.510143900000000095e-01 3.732763399999999843e-01 4.310983299999999740e-01 5.147899200000000119e-01 4.708258399999999955e-01 5.768649099999999530e-01 5.456987100000000313e-01 5.139559200000000105e-01 6.008129800000000520e-01 5.684925600000000356e-01 6.017961499999999742e-01 6.422810500000000200e-01 6.380599700000000318e-01 5.137348900000000551e-01 5.148550400000000415e-01 4.513226799999999761e-01 4.715990700000000091e-01 3.877073600000000009e-01 5.036780100000000093e-01 4.428800900000000040e-01 4.571770700000000187e-01 5.240860000000000518e-01 3.945123099999999772e-01 4.827598000000000167e-01 5.641665500000000444e-01 7.386395999999999518e-01 9.956583100000000464e-01 1.110236900000000082e+00 1.366835100000000081e+00 1.582468200000000103e+00 1.842975299999999983e+00 2.223375400000000113e+00 2.267410499999999995e+00 2.097408300000000114e+00 2.091600600000000032e+00 1.852481199999999939e+00 1.585250999999999966e+00 1.464383800000000013e+00 1.210872900000000030e+00 9.756460500000000424e-01 4.890407900000000030e-01 -1.506194699999999914e-02 -2.106500900000000120e-01 -4.656727399999999739e-01 -4.459868799999999744e-01 -3.446432700000000016e-01 -4.699391399999999774e-01 -4.088265300000000213e-01 -6.465705200000000374e-01 -4.927712899999999729e-01 -4.803232599999999741e-01 -4.967632200000000053e-01 -4.780446799999999996e-01 -5.029299200000000303e-01 -5.367558700000000238e-01 -3.784225600000000189e-01 -2.899357000000000184e-01 -1.077377399999999985e-01 3.853084399999999743e-01 1.233914500000000025e+00 1.569350500000000093e+00 1.179213899999999926e+00 7.420959400000000095e-01 -9.704580100000000098e-02 -6.696827800000000330e-01 -1.220719600000000016e+00 -9.699039400000000199e-01 -2.756258600000000003e-01 1.843014799999999898e-01 -1.335647000000000029e+00
1.000000000000000000e+00 1.552375000000000060e+00 -2.670285800000000154e-01 -1.915356999999999976e+00 -3.123797000000000157e+00 -3.979111500000000134e+00 -3.682137500000000063e+00 -2.371470700000000154e+00 -1.785179800000000094e+00 -1.650536199999999898e+00 -5.016891599999999674e-01 -3.178184000000000009e-01 -2.923922600000000149e-01 -3.697533000000000070e-01 -2.099516200000000055e-01 -3.713556399999999869e-01 -4.306438899999999737e-01 -3.956181200000000175e-01 -4.130744299999999924e-01 -3.586308100000000221e-01 -4.501345999999999958e-01 -4.573349700000000073e-01 -4.464518100000000045e-01 -5.095056999999999503e-01 -5.757944799999999974e-01 -6.685685000000000100e-01 -5.883197300000000407e-01 -7.189225000000000199e-01 -7.260303599999999857e-01 -7.552003900000000547e-01 -8.138021399999999517e-01 -1.008280999999999983e+00 -1.055882399999999999e+00 -1.028072000000000097e+00 -9.961197400000000313e-01 -1.170007599999999925e+00 -1.106134299999999904e+00 -1.031431599999999893e+00 -9.718163100000000165e-01 -1.033626799999999957e+00 -1.076026200000000044e+00 -1.036955300000000024e+00 -1.003767199999999971e+00 -7.945354300000000425e-01 -6.836317699999999720e-01 -5.541689400000000543e-01 -4.452839299999999945e-01 -4.277718500000000090e-01 -3.654994799999999877e-01 -2.556066499999999908e-01 -1.900428000000000117e-01 -1.472987400000000113e-01 -8.306386899999999851e-02 -1.738857300000000092e-02 -1.402585399999999871e-01 -3.637340800000000290e-02 -1.372220600000000068e-01 3.592438800000000154e-02 2.245036499999999990e-02 1.221451900000000007e-01 1.080271399999999937e-01 6.448757700000000426e-02 1.065893400000000046e-01 1.814916599999999991e-01 1.254730199999999907e-01 1.766210400000000069e-01 2.230082700000000084e-01 1.837617300000000120e-01 2.290489199999999892e-01 2.954940300000000186e-01 3.577543400000000040e-01 4.024762299999999904e-01 3.351249399999999823e-01 5.535033799999999893e-01 4.356316800000000211e-01 4.819619099999999934e-01 5.345302299999999951e-01 4.917705399999999782e-01 5.559634900000000046e-01 4.541993999999999754e-01 5.344975299999999985e-01 4.429988799999999838e-01 4.019640800000000014e-01 4.144993699999999781e-01 3.640790199999999754e-01 4.695981300000000025e-01 4.006699899999999759e-01 3.478994599999999937e-01 3.366855500000000001e-01 3.000225000000000253e-01 3.412456400000000167e-01 2.747621599999999775e-01 3.367484700000000220e-01 2.814921599999999913e-01 2.347007999999999872e-01 2.656183100000000241e-01 3.139539199999999974e-01 3.161640199999999901e-01 2.066537099999999905e-01 2.913363900000000006e-01 3.941938300000000228e-01 5.821478399999999720e-01 9.872242599999999646e-01 1.155520199999999997e+00 1.073277599999999943e+00 1.299464600000000081e+00 1.621056100000000111e+00 1.999116899999999974e+00 2.121623399999999826e+00 2.036481600000000114e+00 1.909111199999999897e+00 1.738193700000000064e+00 1.456244000000000094e+00 1.247527599999999959e+00 7.692208999999999852e-01 4.692592300000000272e-01 -4.008546899999999857e-03 -1.903728199999999982e-01 -1.870987100000000014e-01 -2.783930600000000255e-01 -2.540236499999999897e-01 -3.129867499999999803e-01 -1.624501100000000087e-01 -2.469084300000000121e-01 -1.928644200000000086e-01 -1.325765600000000100e-01 -2.122544000000000097e-01 -3.842978100000000313e-02 -1.983000000000000040e-01 -8.928235399999999433e-02 -4.468209499999999806e-02 -3.278657900000000319e-02 6.240985400000000072e-02 5.379516399999999532e-01 1.030157400000000001e+00 1.350502899999999951e+00 2.144516199999999984e+00 2.366370400000000096e+00 2.514872800000000019e+00 1.694254200000000044e+00 1.053193299999999999e+00
1.000000000000000000e+00 -1.775945399999999896e+00 -4.029753300000000316e+00 -4.234641400000000111e+00 -4.159253299999999598e+00 -3.627770299999999892e+00 -2.481166700000000169e+00 -1.290642199999999962e+00 -1.175792600000000077e+00 -5.683995800000000154e-01 -1.532465600000000039e-01 -1.159660400000000063e-01 -3.105600999999999848e-02 -1.124748599999999960e-01 3.738820199999999972e-03 -5.331575600000000061e-03 1.255048700000000080e-02 -5.916434500000000013e-02 -8.437719700000000100e-02 -3.868254299999999979e-02 -1.073498999999999981e-01 -1.062169500000000044e-01 -8.785841699999999421e-02 -1.243087900000000023e-01 -2.495891699999999991e-01 -2.113753700000000069e-01 -1.734106800000000115e-01 -3.703628900000000002e-01 -3.587540399999999963e-01 -4.645365499999999925e-01 -4.067579000000000056e-01 -4.120139600000000124e-01 -5.454588000000000214e-01 -5.201679799999999743e-01 -5.833266400000000074e-01 -5.604079499999999880e-01 -5.934006400000000347e-01 -5.787083200000000538e-01 -5.207889199999999885e-01 -4.938214899999999741e-01 -3.895034499999999733e-01 -3.009065799999999791e-01 -2.479410200000000120e-01 -2.118151899999999865e-01 1.081991199999999924e-02 8.794947899999999708e-02 2.031650000000000122e-01 2.359117900000000101e-01 1.915747299999999986e-01 2.630132299999999868e-01 2.757875100000000135e-01 2.397118900000000108e-01 3.147713100000000264e-01 2.705346100000000087e-01 1.938377400000000084e-01 2.497829199999999916e-01 2.163588200000000072e-01 2.809489299999999856e-01 3.794286199999999942e-01 3.420792599999999961e-01 3.062587099999999896e-01 3.122557899999999775e-01 3.499798599999999760e-01 4.807395899999999944e-01 4.101559699999999808e-01 4.110675200000000196e-01 4.982572299999999954e-01 4.945738199999999973e-01 5.486723900000000098e-01 5.712348999999999899e-01 6.245427599999999746e-01 6.600961199999999529e-01 6.497147899999999865e-01 6.114136900000000097e-01 6.382948400000000300e-01 6.559947799999999996e-01 6.426427500000000403e-01 5.691013299999999608e-01 6.222538300000000078e-01 4.599906899999999799e-01 5.181724500000000067e-01 4.642830099999999960e-01 4.187539100000000070e-01 4.356623099999999971e-01 4.514770699999999803e-01 3.563142799999999832e-01 2.807133299999999831e-01 2.927913899999999847e-01 2.137114300000000078e-01 2.343454000000000093e-01 2.474096500000000087e-01 3.717730300000000043e-01 3.073255999999999766e-01 2.469884499999999983e-01 2.396261199999999980e-01 2.572392800000000146e-01 3.635001199999999821e-01 4.598832999999999949e-01 7.778009799999999752e-01 9.735372500000000207e-01 1.016272899999999924e+00 1.210322600000000026e+00 1.373564599999999913e+00 1.589407299999999967e+00 1.614018100000000011e+00 1.600757399999999997e+00 1.575728100000000076e+00 1.442430700000000066e+00 1.301938999999999957e+00 1.044784699999999900e+00 7.530434900000000376e-01 5.359757699999999625e-01 9.494509099999999535e-02 -2.925279399999999863e-01 -3.481274899999999839e-01 -2.745496700000000234e-01 -3.352907399999999760e-01 -2.952123099999999778e-01 -2.766906800000000222e-01 -2.961416399999999838e-01 -3.165697399999999884e-01 -3.403283599999999964e-01 -2.947495399999999766e-01 -3.403627599999999864e-01 -3.912902400000000114e-01 -2.801208700000000218e-01 -3.199874200000000224e-01 -3.446700699999999951e-01 -2.777765799999999952e-01 3.077898499999999760e-01 7.506011299999999498e-01 8.554247200000000273e-01 9.369028700000000542e-01 8.897046100000000068e-01 7.577884599999999971e-01 4.565791100000000102e-01 3.156402799999999953e-01 7.429503899999999605e-01 6.767588400000000559e-02 -1.555132600000000087e+00 -4.292787699999999873e+00
1.000000000000000000e+00 -1.854721499999999912e+00 -4.119731400000000043e+00 -4.145229699999999795e+00 -4.198682599999999709e+00 -3.858193099999999820e+00 -2.936931799999999981e+00 -1.614764599999999994e+00 -1.177000700000000011e+00 -8.409138400000000235e-01 -1.367297299999999938e-01 -1.600184199999999946e-01 -2.559235599999999944e-01 -1.915220900000000059e-01 -2.695247199999999954e-01 -2.133982299999999943e-01 -1.426240799999999864e-01 -2.645575700000000197e-01 -2.030548199999999970e-01 -2.340404000000000095e-01 -3.323147200000000079e-01 -2.343794999999999906e-01 -2.308467800000000014e-01 -3.021578899999999845e-01 -2.621572699999999978e-01 -3.587790000000000146e-01 -4.538098999999999883e-01 -3.157347400000000137e-01 -4.670166399999999829e-01 -5.098228200000000099e-01 -3.939138600000000046e-01 -5.239833499999999589e-01 -5.528808600000000295e-01 -6.792331799999999919e-01 -5.509495300000000206e-01 -5.057608500000000396e-01 -6.747799799999999459e-01 -5.324736799999999493e-01 -5.512246100000000038e-01 -5.583689200000000463e-01 -6.304870399999999986e-01 -4.726078400000000013e-01 -3.798482100000000194e-01 -3.750759499999999913e-01 -3.115282999999999802e-01 -1.867100100000000096e-01 -2.163069200000000136e-01 -1.357386800000000004e-01 -6.350730300000000106e-02 -3.835323899999999731e-02 7.454449900000000018e-02 3.478579899999999919e-02 -8.309746200000000735e-03 6.510175199999999884e-02 -3.253218000000000082e-02 2.823631500000000141e-02 -6.420278699999999727e-02 5.551090899999999717e-02 -4.443601600000000179e-02 9.644870699999999464e-02 1.726540400000000086e-01 2.042815499999999992e-02 4.435834300000000147e-02 1.909813999999999956e-01 1.668488999999999944e-01 2.230458600000000124e-01 1.762404700000000102e-01 2.154953199999999902e-01 2.715632700000000233e-01 3.330313999999999774e-01 3.006983599999999979e-01 3.543758699999999817e-01 4.972436900000000159e-01 4.157501000000000113e-01 3.862031400000000003e-01 4.843919199999999758e-01 4.489629500000000273e-01 3.753239400000000225e-01 3.504830899999999971e-01 4.333660500000000027e-01 4.615879999999999983e-01 5.250622999999999818e-01 4.434304399999999813e-01 4.973332100000000255e-01 3.328932499999999739e-01 2.889989600000000269e-01 3.110693999999999959e-01 3.219591700000000167e-01 4.398156300000000130e-01 4.414945100000000067e-01 4.296918599999999810e-01 3.933770200000000217e-01 4.372583199999999781e-01 4.641046099999999730e-01 4.465310000000000112e-01 6.236146999999999663e-01 6.387330399999999742e-01 9.009739799999999521e-01 1.047235099999999974e+00 1.124650300000000103e+00 1.414276499999999936e+00 1.572154899999999911e+00 1.886895999999999907e+00 2.065022400000000147e+00 2.132138199999999983e+00 1.988963599999999943e+00 1.747715899999999989e+00 1.482994600000000052e+00 1.362762400000000040e+00 1.056893300000000036e+00 7.347497299999999898e-01 4.246372900000000006e-01 2.627669599999999869e-02 -1.699482900000000019e-01 -2.597620400000000274e-01 -2.733497200000000182e-01 -2.081754799999999961e-01 -3.200760599999999956e-01 -2.362831099999999906e-01 -2.823404899999999995e-01 -3.167724599999999779e-01 -1.581757900000000105e-01 -1.769216100000000069e-01 -2.252857000000000054e-01 -1.916916800000000032e-01 -1.652537799999999890e-01 -1.343727799999999972e-01 -1.753744000000000136e-01 -9.935139099999999723e-02 1.142644899999999963e-01 5.472762300000000302e-01 8.726722199999999985e-01 7.868673499999999654e-01 1.044879200000000008e+00 1.006132900000000108e+00 9.091635099999999525e-01 7.945935899999999608e-01 7.560178100000000123e-01 1.102782099999999987e+00 1.034017399999999975e+00 -1.489107399999999970e+00
1.000000000000000000e+00 -9.435444600000000293e-01 -2.474988900000000047e+00 -4.040756400000000248e+00 -4.569895800000000285e+00 -4.263284600000000424e+00 -3.599468299999999843e+00 -2.205753599999999981e+00 -1.441561300000000045e+00 -1.208458199999999927e+00 -4.990012799999999915e-01 2.253358100000000044e-02 5.602297299999999675e-02 4.426164500000000397e-03 4.864869599999999822e-02 6.305166500000000673e-02 1.272595300000000096e-01 5.380465000000000247e-02 4.743101200000000156e-02 7.563422799999999779e-02 2.383431999999999912e-02 5.722103900000000132e-02 -6.519530699999999401e-02 -1.041296899999999970e-01 -1.579211599999999840e-02 -1.100478899999999954e-01 -9.498939900000000214e-02 -1.469604300000000030e-01 -2.350657399999999952e-01 -2.389058300000000135e-01 -3.657430199999999743e-01 -3.078123099999999779e-01 -3.086608399999999919e-01 -3.650478200000000228e-01 -5.147382000000000346e-01 -5.101932900000000215e-01 -5.169401200000000030e-01 -4.557286799999999971e-01 -3.761237000000000053e-01 -4.167734900000000242e-01 -3.860616299999999890e-01 -3.081620199999999810e-01 -2.432775799999999933e-01 -2.680401099999999981e-01 -1.075579799999999975e-01 6.249985799999999841e-02 1.066923399999999966e-01 1.047301199999999960e-01 1.770429299999999873e-01 2.667219800000000252e-01 3.024445299999999892e-01 2.909140399999999849e-01 2.058193299999999948e-01 2.757593300000000247e-01 1.492828200000000105e-01 1.517462599999999939e-01 2.557912099999999911e-01 1.117108599999999952e-01 2.259678499999999979e-01 2.591525499999999815e-01 1.714894600000000102e-01 2.253751599999999911e-01 1.793540600000000096e-01 2.422987699999999966e-01 3.204108999999999985e-01 2.973576700000000184e-01 2.286762800000000095e-01 3.745273399999999864e-01 3.829611299999999829e-01 5.013778300000000243e-01 4.629199700000000139e-01 4.400013300000000238e-01 6.187511799999999562e-01 5.487966399999999467e-01 6.217466000000000381e-01 6.352980900000000375e-01 7.071611100000000372e-01 7.194709700000000430e-01 6.611181900000000500e-01 6.904213799999999734e-01 6.402677100000000454e-01 5.952937700000000554e-01 6.437006199999999456e-01 7.415629900000000330e-01 6.886044099999999446e-01 7.301532800000000156e-01 5.870501299999999478e-01 5.286486099999999633e-01 5.445966300000000260e-01 4.903813699999999831e-01 3.949017699999999853e-01 3.357109200000000238e-01 4.570318600000000120e-01 5.241682800000000420e-01 7.094481500000000551e-01 9.316509299999999882e-01 1.090561799999999915e+00 1.141990899999999920e+00 1.274391800000000075e+00 1.450474299999999994e+00 1.598792699999999956e+00 1.833845500000000017e+00 1.685447300000000093e+00 1.560532699999999995e+00 1.551673199999999975e+00 1.375753299999999957e+00 1.282618199999999931e+00 1.052231499999999986e+00 7.870368800000000498e-01 6.161216299999999757e-01 8.992925100000000171e-02 -2.979403400000000257e-01 -4.557060099999999947e-01 -4.458379900000000173e-01 -5.522417200000000470e-01 -5.193948600000000138e-01 -6.078149000000000468e-01 -5.936664999999999859e-01 -6.263417199999999907e-01 -6.183863800000000133e-01 -6.144402599999999603e-01 -6.838516799999999618e-01 -6.206456200000000090e-01 -5.866174400000000455e-01 -6.384638900000000339e-01 -6.786304699999999857e-01 -6.083400100000000421e-01 -2.989949000000000079e-01 6.295379399999999348e-02 5.362446800000000291e-01 5.288318300000000027e-01 4.258056900000000145e-01 4.520884199999999908e-01 3.925113299999999916e-01 2.309061199999999925e-01 2.681886600000000231e-01 3.668877099999999780e-01 6.598610299999999595e-01 3.300952500000000067e-01 -8.282397200000000126e-01 -2.760390500000000191e+00
1.000000000000000000e+00 -1.980285000000000073e+00 -3.270371400000000150e+00 -3.821605899999999778e+00 -4.297749699999999784e+00 -3.780798700000000068e+00 -3.131010900000000152e+00 -1.774724699999999933e+00 -1.273215699999999950e+00 -8.171887399999999690e-01 -3.296126999999999807e-01 -3.237918000000000185e-01 -3.038294000000000272e-01 -2.521939500000000001e-01 -2.651838499999999987e-01 -3.346059000000000117e-01 -2.730929500000000010e-01 -1.638130399999999931e-01 -2.383662000000000003e-01 -2.998365000000000058e-01 -1.841832599999999875e-01 -3.253677300000000217e-01 -1.574289100000000052e-01 -2.957620799999999828e-01 -2.832641799999999765e-01 -2.038300200000000006e-01 -2.271360900000000127e-01 -1.753223700000000052e-01 -2.389149700000000043e-01 -2.503757999999999817e-01 -2.623884899999999742e-01 -3.631504700000000030e-01 -3.061335099999999976e-01 -3.048670399999999781e-01 -2.981766900000000220e-01 -2.560449699999999829e-01 -2.398966899999999958e-01 -2.669074699999999800e-01 -2.793201499999999893e-01 -2.686224300000000231e-01 -6.614618199999999781e-02 -2.038107899999999917e-01 -1.764178200000000030e-01 -1.738881399999999966e-01 -4.747738499999999695e-02 -2.192080000000000070e-02 4.871752800000000300e-02 1.242171999999999998e-01 9.538511299999999360e-02 1.730454399999999948e-01 1.294012099999999887e-01 6.023599200000000209e-02 7.027591099999999646e-02 1.236440800000000034e-01 2.970397799999999894e-02 5.269700499999999815e-02 1.164250399999999935e-01 8.817401099999999659e-02 1.383885699999999885e-01 1.376310000000000033e-01 1.219272599999999956e-01 5.222278000000000336e-02 1.827194500000000055e-01 2.337203700000000106e-01 2.315383299999999867e-01 3.067656999999999745e-01 2.488714999999999955e-01 2.117228300000000007e-01 3.663168800000000114e-01 4.763552200000000236e-01 4.338381399999999832e-01 4.109499300000000188e-01 3.647375700000000109e-01 4.104238399999999842e-01 4.882096300000000055e-01 6.151460399999999495e-01 6.809838900000000361e-01 5.789469299999999707e-01 6.922782100000000050e-01 5.575063799999999681e-01 5.791531199999999657e-01 6.315649300000000244e-01 5.446980900000000236e-01 6.586322799999999589e-01 5.582294899999999949e-01 4.887513199999999891e-01 4.957090200000000002e-01 4.198985100000000026e-01 6.530167700000000242e-01 5.208940300000000079e-01 5.190095399999999914e-01 5.517984999999999696e-01 4.810085100000000002e-01 5.367519099999999987e-01 6.279230099999999481e-01 7.533082399999999623e-01 9.732482999999999551e-01 1.157807299999999984e+00 1.156202200000000069e+00 1.359424799999999989e+00 1.588902199999999931e+00 1.886245299999999903e+00 1.951738699999999938e+00 1.807618399999999959e+00 1.752545599999999926e+00 1.660978199999999960e+00 1.459470000000000045e+00 1.276543299999999936e+00 9.830380300000000071e-01 9.434042099999999653e-01 7.572075000000000333e-01 3.099860600000000077e-01 1.774771699999999966e-02 7.478076499999999904e-02 -3.020560400000000048e-02 -6.607653700000000463e-02 8.829711500000000240e-03 -5.705756800000000295e-02 -5.513941599999999665e-02 -9.210476599999999764e-03 -6.207670700000000180e-02 -1.636317300000000030e-01 -5.822569799999999934e-02 -2.984992900000000074e-02 -3.439095699999999978e-02 -4.601292099999999829e-02 -6.637802099999999539e-02 -4.471735300000000135e-02 2.331502000000000019e-01 8.468335500000000460e-01 1.342299499999999979e+00 1.156009400000000076e+00 6.582343600000000183e-01 -2.284932199999999969e-01 -1.211066200000000093e+00 -1.559606499999999896e+00 -1.485072299999999901e+00 -9.654817900000000064e-01 -7.197873799999999767e-01 -1.237799799999999895e+00 -2.497403600000000168e+00
2.000000000000000000e+00 2.266443599999999892e-01 -6.429338799999999576e-01 -1.252132199999999917e+00 -1.726531400000000049e+00 -2.027748299999999837e+00 -2.370703799999999806e+00 -2.451839699999999844e+00 -2.348330199999999923e+00 -2.124123299999999936e+00 -1.593733499999999914e+00 -1.041827999999999976e+00 -7.412844299999999942e-01 -6.138050200000000345e-01 -5.461930200000000291e-01 -4.011322099999999891e-01 -3.510390699999999670e-02 3.483273900000000145e-01 5.066352600000000317e-01 5.391860499999999723e-01 4.916910600000000131e-01 4.481236599999999792e-01 5.170459800000000161e-01 5.247650799999999949e-01 5.198402800000000434e-01 5.825451699999999455e-01 5.487960699999999692e-01 4.886722000000000010e-01 5.234305099999999600e-01 5.665377000000000329e-01 5.657805000000000195e-01 5.286615900000000146e-01 5.327844200000000363e-01 5.915805600000000330e-01 5.094897099999999845e-01 4.571275399999999989e-01 5.689305500000000348e-01 5.679671099999999972e-01 5.069637999999999645e-01 4.629426400000000164e-01 3.983474699999999813e-01 4.481236599999999792e-01 5.149446100000000248e-01 4.639452600000000260e-01 4.588459100000000235e-01 4.621208700000000169e-01 4.279891800000000246e-01 4.372094899999999784e-01 3.726825699999999908e-01 3.566143600000000191e-01 3.560669499999999932e-01 2.669133200000000095e-01 2.640107400000000215e-01 2.630750299999999875e-01 2.958568200000000203e-01 3.205433799999999889e-01 2.266443599999999892e-01 2.306589900000000082e-01 2.713501799999999964e-01 2.102438899999999888e-01 1.572006699999999868e-01 1.058374700000000029e-01 9.007884800000000303e-02 1.762674200000000080e-01 1.466107399999999894e-01 2.474729999999999985e-02 4.543402099999999805e-02 1.295318400000000092e-01 1.843579300000000032e-01 1.697728199999999910e-01 1.153040300000000018e-01 8.570298499999999542e-02 6.531519399999999309e-02 8.922141699999999731e-02 1.162870899999999957e-01 1.363319000000000059e-01 2.065098800000000068e-01 2.359780800000000067e-01 1.920622899999999966e-01 2.092862799999999912e-01 2.873360200000000253e-01 3.474512499999999893e-01 3.690403099999999825e-01 3.841062399999999877e-01 4.897320199999999901e-01 5.192131500000000122e-01 4.481236599999999792e-01 4.794762100000000138e-01 4.879216699999999740e-01 5.237439600000000084e-01 6.297549300000000461e-01 6.091995199999999944e-01 5.661528700000000303e-01 5.975561600000000029e-01 6.086006099999999863e-01 5.855747700000000222e-01 6.091995199999999944e-01 6.369226099999999446e-01 5.948208000000000384e-01 6.100915099999999480e-01 6.586554500000000312e-01 6.897374400000000350e-01 7.326389599999999502e-01 6.917062600000000172e-01 6.777150100000000066e-01 7.132129699999999461e-01 6.696029599999999693e-01 6.891083999999999543e-01 7.575406999999999558e-01 7.334446900000000102e-01 7.694601399999999591e-01 7.904098499999999694e-01 7.120823699999999645e-01 7.548639099999999713e-01 6.696794400000000147e-01 4.156558399999999986e-01 3.675857299999999994e-01 4.325237100000000057e-01 5.133351900000000523e-01 5.546254600000000146e-01 4.252688099999999971e-01 2.669133200000000095e-01 2.057905399999999940e-01 9.470038299999999909e-02 -4.717250900000000136e-02 5.360458399999999679e-02 1.662409099999999917e-01 -4.141621999999999665e-02 -3.069333300000000042e-01 -6.230657200000000451e-01 -1.206357799999999925e+00 -1.887476200000000048e+00 -2.545855599999999885e+00 -3.246632500000000032e+00 -3.937837800000000055e+00 -4.118189300000000053e+00 -3.679445100000000135e+00 -2.758903600000000012e+00 -1.547121799999999991e+00 -8.066982000000000319e-01 2.279133399999999920e-01
2.000000000000000000e+00 -8.930950699999999909e-01 -1.957480000000000109e+00 -2.778438599999999870e+00 -3.127975499999999798e+00 -2.901329599999999953e+00 -2.421912799999999866e+00 -1.817022600000000043e+00 -1.172467699999999891e+00 -6.740731899999999888e-01 -6.238895399999999647e-01 -5.433935699999999924e-01 -8.004009900000000344e-02 2.082036499999999901e-01 2.877137399999999956e-01 3.491335799999999989e-01 3.321775100000000092e-01 3.209385000000000154e-01 2.944147100000000239e-01 2.809370999999999952e-01 3.003953400000000107e-01 2.838422999999999918e-01 2.743373700000000248e-01 3.048843900000000051e-01 3.417996799999999946e-01 3.263774899999999923e-01 2.964920099999999725e-01 3.342039199999999877e-01 3.625519500000000117e-01 3.005657099999999859e-01 2.552147900000000247e-01 2.989261999999999753e-01 2.821690700000000218e-01 2.839428399999999741e-01 1.941305999999999865e-01 1.326420899999999903e-01 1.809553499999999870e-01 1.521807900000000102e-01 2.203345899999999968e-01 2.065430799999999900e-01 6.422547200000000567e-02 5.607259900000000075e-02 8.102532299999999632e-02 4.439076899999999659e-02 -2.510137200000000027e-02 -5.226471099999999842e-02 -5.482194900000000003e-03 -1.674452599999999916e-02 -5.406297200000000081e-02 -1.063041200000000019e-01 -1.607620800000000016e-01 -1.412037700000000062e-01 -1.480111299999999908e-01 -1.075892900000000041e-01 -8.737803500000000667e-02 -1.795768299999999928e-01 -1.745960599999999974e-01 -1.182626299999999936e-01 -8.037652800000000264e-02 -4.515674299999999919e-02 -1.460721199999999963e-03 8.703177499999999178e-03 1.269452700000000059e-02 4.737108599999999975e-02 1.450679300000000116e-01 2.222648100000000071e-01 2.387271099999999924e-01 2.407859900000000053e-01 2.353476899999999983e-01 4.171609000000000012e-01 4.873025300000000115e-01 4.723852599999999735e-01 5.273819299999999988e-01 5.027691800000000377e-01 5.730367200000000549e-01 5.876909500000000453e-01 5.296984200000000031e-01 5.926721700000000537e-01 5.405492200000000524e-01 5.757895499999999833e-01 6.375890199999999508e-01 6.348917899999999559e-01 5.821960699999999544e-01 5.376203299999999796e-01 6.198898600000000148e-01 5.728041299999999669e-01 5.664407700000000379e-01 6.098254300000000017e-01 6.189786900000000536e-01 5.907440699999999545e-01 5.734498900000000177e-01 6.559822100000000100e-01 7.304561499999999707e-01 7.115804500000000310e-01 6.545708500000000374e-01 6.522271299999999883e-01 7.122486000000000095e-01 7.313985200000000519e-01 7.541839599999999866e-01 7.070007600000000059e-01 7.757936199999999616e-01 8.765841500000000064e-01 8.396970799999999846e-01 8.438025399999999898e-01 8.039116699999999671e-01 8.198250999999999733e-01 8.457899500000000126e-01 9.361353999999999509e-01 9.086535399999999818e-01 8.652615900000000249e-01 9.297356599999999638e-01 9.866977700000000295e-01 1.005748099999999923e+00 9.078668100000000241e-01 9.414068100000000383e-01 9.370505900000000166e-01 7.819001199999999763e-01 6.219708299999999745e-01 5.513935399999999598e-01 5.491614299999999504e-01 4.867299099999999878e-01 4.186858700000000155e-01 3.595887700000000020e-01 2.115027999999999908e-01 2.363007599999999986e-02 -1.309481399999999907e-01 -1.548026899999999928e-01 -8.650789100000000342e-02 -2.504681500000000005e-01 -6.306095699999999526e-01 -1.192126199999999914e+00 -1.863551100000000016e+00 -2.401299499999999920e+00 -2.896746799999999844e+00 -3.305832000000000104e+00 -3.711079100000000075e+00 -3.578778100000000073e+00 -2.746405499999999833e+00 -1.692105200000000087e+00 -6.108553899999999981e-01 5.584316799999999859e-02
2.000000000000000000e+00 6.493520200000000298e-01 -7.213761499999999938e-01 -1.756244099999999975e+00 -2.745882299999999887e+00 -3.451034799999999958e+00 -3.466518600000000117e+00 -3.143735400000000180e+00 -2.791719000000000062e+00 -2.217050700000000152e+00 -1.617241200000000045e+00 -1.173530100000000020e+00 -1.038677199999999967e+00 -8.341590199999999733e-01 -3.188655899999999765e-01 7.301275099999999900e-03 1.224385499999999932e-01 1.282589799999999947e-01 8.383719200000000482e-02 1.927382300000000104e-01 1.871800299999999972e-01 1.044770200000000038e-01 1.115587900000000049e-01 1.313632899999999937e-01 1.086831999999999937e-01 1.449539999999999995e-01 1.259652400000000061e-01 1.703700499999999951e-01 2.440748600000000046e-01 1.619072099999999959e-01 1.839448399999999983e-01 1.439908599999999983e-01 1.827744799999999892e-01 1.154150099999999984e-01 5.688074099999999855e-02 1.062460999999999961e-01 3.977171899999999705e-02 3.920171599999999756e-02 5.686482699999999973e-02 4.131961099999999915e-02 -4.385316400000000003e-02 -4.898027400000000246e-03 7.483669200000000153e-03 -7.215877199999999603e-02 -1.422320099999999921e-01 -1.767360000000000042e-01 -1.514372599999999902e-01 -1.807398299999999902e-01 -2.184775499999999926e-01 -2.366241099999999986e-01 -2.430869099999999894e-01 -2.408218099999999973e-01 -2.962016299999999935e-01 -2.816118499999999969e-01 -2.675740300000000182e-01 -3.082061300000000226e-01 -3.033451600000000026e-01 -3.043443399999999910e-01 -2.292243900000000001e-01 -1.930057699999999932e-01 -1.726168899999999951e-01 -8.312280800000000636e-02 -1.752750499999999878e-01 -1.147027899999999989e-01 -3.416218399999999822e-02 -5.403774299999999919e-02 1.696435799999999883e-01 2.066353499999999954e-01 2.642723399999999945e-01 3.510279499999999775e-01 3.602065700000000037e-01 4.086599000000000204e-01 5.064768099999999995e-01 5.457474100000000439e-01 5.828038399999999619e-01 6.502014900000000486e-01 6.276464200000000382e-01 6.716420499999999905e-01 6.189923800000000087e-01 6.423422500000000035e-01 6.807215699999999980e-01 6.869990299999999550e-01 7.521108600000000477e-01 7.248503299999999872e-01 7.132021400000000400e-01 6.705452699999999711e-01 6.618378499999999498e-01 7.361530800000000152e-01 6.935189200000000387e-01 7.588514299999999935e-01 8.378989500000000312e-01 7.744284500000000460e-01 7.834950299999999812e-01 7.460700000000000109e-01 7.590568300000000157e-01 8.221719800000000244e-01 7.259101700000000212e-01 7.694622599999999535e-01 8.889711099999999533e-01 8.463150999999999868e-01 8.227367799999999454e-01 8.889619300000000113e-01 9.543102199999999868e-01 9.439390199999999620e-01 9.442409499999999678e-01 1.020464899999999897e+00 1.043866699999999925e+00 9.967285399999999962e-01 9.984123299999999590e-01 1.019877600000000051e+00 1.040523599999999993e+00 1.055312699999999992e+00 1.077520899999999893e+00 1.073217099999999924e+00 9.972895699999999586e-01 9.188517400000000279e-01 7.212901200000000346e-01 6.123270100000000049e-01 6.943515000000000104e-01 6.227053299999999458e-01 5.261639599999999861e-01 3.792671699999999868e-01 1.348602600000000096e-01 1.173493300000000017e-01 1.221866800000000058e-01 1.855523199999999928e-01 2.363473500000000116e-01 -5.622138499999999872e-02 -4.113194000000000017e-01 -8.927713400000000243e-01 -1.514710400000000012e+00 -1.850014999999999965e+00 -2.251850500000000199e+00 -2.811890299999999954e+00 -2.962238000000000149e+00 -2.657805100000000031e+00 -1.707408100000000095e+00 -7.121100599999999892e-01 4.078885099999999819e-01 8.465525600000000095e-01 9.425509800000000382e-01
1.000000000000000000e+00 -1.685960099999999906e-01 -2.346840400000000049e+00 -3.294511799999999990e+00 -4.419904100000000113e+00 -4.405260199999999848e+00 -3.518674799999999880e+00 -2.194086599999999887e+00 -1.568874399999999891e+00 -1.327398499999999926e+00 -3.922651699999999964e-01 -2.093584300000000120e-01 -2.784761299999999884e-01 -2.853172199999999825e-01 -1.078571200000000008e-01 -7.602908099999999836e-02 -9.500467599999999624e-02 -1.379030400000000045e-01 -7.070182199999999750e-02 -1.862546300000000044e-01 -1.893533000000000022e-01 -2.053582700000000094e-01 -1.323381100000000088e-01 -2.254716900000000024e-01 -2.468907499999999922e-01 -1.898066300000000040e-01 -2.249830899999999967e-01 -3.639436099999999730e-01 -4.587598199999999848e-01 -3.678404499999999855e-01 -3.770795499999999856e-01 -4.500361999999999973e-01 -4.889198200000000050e-01 -6.262035700000000427e-01 -5.637364499999999445e-01 -6.337417199999999529e-01 -7.122762599999999944e-01 -6.426208500000000212e-01 -6.520531899999999492e-01 -7.562038500000000107e-01 -7.866224299999999836e-01 -6.780154400000000248e-01 -6.404178499999999552e-01 -4.979708899999999994e-01 -5.443723499999999493e-01 -3.983348299999999731e-01 -2.579688199999999876e-01 -2.093507400000000074e-01 -1.366319199999999900e-01 5.550267900000000094e-03 1.648624900000000004e-01 1.136929400000000062e-01 1.213225599999999960e-01 1.862093599999999904e-01 1.609227799999999875e-01 1.995694100000000026e-01 7.836442000000000407e-02 5.324719099999999927e-02 7.493873299999999349e-02 2.866035599999999794e-01 2.645017299999999905e-01 2.673474499999999865e-01 2.963206500000000188e-01 2.713824000000000236e-01 2.595545100000000160e-01 1.797658699999999943e-01 1.455316000000000110e-01 3.201784500000000033e-01 4.124226500000000017e-01 4.556039000000000061e-01 5.231021300000000540e-01 5.586040300000000292e-01 5.853398699999999844e-01 6.253378600000000231e-01 6.630275599999999603e-01 7.803259299999999454e-01 7.563001900000000388e-01 8.795782699999999954e-01 8.186214299999999833e-01 7.289888399999999713e-01 7.354489800000000299e-01 7.749550600000000289e-01 7.981055299999999519e-01 7.753139300000000400e-01 7.617840000000000167e-01 6.121993500000000310e-01 5.373536500000000160e-01 5.957098299999999957e-01 5.559397499999999548e-01 4.030998700000000268e-01 3.984690200000000071e-01 5.014797300000000124e-01 3.612347699999999828e-01 4.141063600000000067e-01 3.792246599999999912e-01 5.566983399999999582e-01 5.162093700000000007e-01 4.766534800000000183e-01 6.781337200000000509e-01 8.185067799999999894e-01 1.062157900000000099e+00 1.353207599999999955e+00 1.552167700000000039e+00 1.861727300000000085e+00 2.027077900000000099e+00 1.925932600000000106e+00 1.941201200000000071e+00 1.741191200000000050e+00 1.462562300000000093e+00 1.349683299999999919e+00 1.110802300000000020e+00 6.349040400000000028e-01 1.772694300000000056e-01 -1.120549700000000037e-01 -3.764205299999999754e-01 -4.488324300000000044e-01 -5.388990000000000169e-01 -6.228630800000000134e-01 -4.210773899999999959e-01 -3.031754999999999867e-01 -5.448415300000000183e-01 -3.944333500000000159e-01 -5.157633000000000356e-01 -4.468455100000000013e-01 -5.225998499999999769e-01 -6.343862399999999901e-01 -6.183427099999999621e-01 -5.447665200000000318e-01 -4.400021599999999755e-01 -1.379420200000000020e-02 9.402173000000000336e-01 1.471202300000000074e+00 7.918183199999999644e-01 8.897837800000000241e-01 1.185630600000000090e+00 8.676218799999999565e-01 1.400571700000000086e-01 -4.048329700000000142e-01 -4.077519199999999899e-01 7.794719699999999585e-02 -1.399609099999999939e+00
2.000000000000000000e+00 -2.390781000000000156e-02 -7.997008399999999684e-01 -8.975708900000000101e-01 -1.850147399999999998e+00 -2.001123699999999950e+00 -2.275464500000000001e+00 -2.661172099999999929e+00 -2.572687800000000191e+00 -2.466887900000000133e+00 -2.270371100000000197e+00 -1.838330800000000043e+00 -1.337112800000000101e+00 -8.750588799999999834e-01 -5.334141199999999916e-01 -4.210165299999999999e-01 -3.433231900000000003e-01 -1.329048100000000121e-01 1.492494299999999885e-01 3.248617200000000205e-01 2.912359500000000212e-01 3.083063300000000173e-01 4.056802500000000200e-01 3.860647700000000015e-01 3.498043699999999756e-01 3.648484399999999961e-01 4.051003300000000085e-01 4.412641900000000006e-01 4.298136799999999758e-01 4.070544799999999963e-01 4.104222200000000043e-01 4.267515000000000058e-01 4.556641300000000006e-01 4.685825200000000024e-01 4.468628499999999781e-01 4.448423499999999975e-01 4.390396699999999930e-01 4.085721700000000123e-01 4.101738400000000118e-01 3.894446300000000138e-01 3.459415200000000024e-01 3.763336999999999932e-01 4.079761599999999766e-01 4.020069399999999793e-01 4.058931700000000253e-01 4.033161699999999739e-01 4.037684999999999746e-01 3.996014199999999850e-01 3.449567000000000050e-01 2.906541500000000000e-01 3.178024999999999878e-01 3.483504499999999782e-01 3.079138200000000047e-01 2.715729299999999902e-01 2.586431100000000094e-01 2.469414100000000001e-01 2.750688299999999864e-01 2.362562500000000010e-01 1.796556500000000001e-01 2.416115000000000068e-01 2.515455200000000224e-01 2.461151299999999875e-01 2.725466500000000014e-01 2.254636100000000087e-01 2.520283799999999963e-01 3.109732599999999736e-01 2.651201499999999989e-01 2.984591300000000169e-01 3.911261100000000268e-01 3.387854200000000038e-01 2.998428799999999783e-01 4.020038699999999854e-01 4.624315299999999795e-01 4.521476700000000015e-01 4.782494700000000099e-01 5.402680100000000207e-01 5.865210600000000385e-01 5.945781999999999456e-01 6.401523399999999864e-01 6.880659399999999870e-01 6.976439800000000524e-01 7.225677999999999823e-01 6.890991300000000042e-01 6.346755499999999772e-01 6.439356099999999916e-01 6.496677600000000385e-01 6.271798200000000545e-01 5.959021799999999480e-01 5.904918399999999901e-01 5.925011300000000425e-01 5.657189099999999637e-01 6.018855499999999914e-01 6.204836599999999924e-01 5.526224400000000481e-01 5.338320100000000235e-01 5.255939299999999870e-01 5.240627500000000216e-01 5.937797400000000003e-01 6.311044099999999490e-01 5.927000999999999520e-01 5.635470099999999594e-01 5.751318199999999603e-01 6.039747899999999836e-01 6.237650099999999531e-01 6.334830999999999657e-01 6.535041900000000403e-01 6.797723500000000252e-01 6.628517200000000331e-01 6.104978699999999980e-01 6.208633300000000466e-01 6.223222299999999763e-01 6.031945300000000065e-01 6.389888299999999521e-01 5.780662300000000142e-01 4.879055500000000212e-01 5.117836199999999947e-01 5.165774699999999831e-01 5.475961299999999587e-01 5.960793199999999681e-01 5.089073899999999595e-01 4.167837300000000189e-01 3.861970200000000020e-01 3.099906900000000132e-01 2.312779899999999889e-01 2.506277599999999772e-01 2.340449500000000016e-01 3.146953499999999987e-02 -2.691188500000000206e-01 -6.369503899999999774e-01 -1.142373700000000047e+00 -1.665550800000000109e+00 -2.252748799999999996e+00 -2.861648000000000192e+00 -3.447056599999999804e+00 -3.843119399999999963e+00 -3.402903900000000093e+00 -2.786632500000000068e+00 -1.779818099999999959e+00 -6.868368599999999935e-01 -1.223985600000000007e+00 3.899570199999999875e-01
1.000000000000000000e+00 -1.165806099999999956e+00 -4.225821299999999781e+00 -4.615693900000000127e+00 -4.588000799999999657e+00 -3.524939100000000103e+00 -2.152684300000000217e+00 -1.612041099999999894e+00 -1.301807099999999995e+00 -3.647285100000000058e-01 -1.168801399999999935e-01 -2.398233800000000027e-01 -1.518023699999999920e-01 -1.448225900000000010e-01 -1.300294600000000134e-01 -1.560746899999999882e-01 -1.716224500000000097e-01 -2.025566599999999995e-01 -2.255090899999999954e-01 -1.821347299999999947e-01 -2.299291800000000108e-01 -2.784666599999999770e-01 -3.599262999999999768e-01 -4.339547500000000002e-01 -3.695089100000000237e-01 -4.418669700000000256e-01 -5.125011400000000217e-01 -4.486782300000000112e-01 -5.843492099999999523e-01 -5.789232100000000214e-01 -6.518302500000000554e-01 -6.714687499999999476e-01 -7.107766199999999701e-01 -7.599989400000000117e-01 -6.694894500000000415e-01 -7.765544500000000072e-01 -8.439633300000000116e-01 -8.486182599999999576e-01 -7.866925599999999852e-01 -7.630130000000000523e-01 -7.292984300000000530e-01 -6.391247300000000298e-01 -4.804528399999999921e-01 -3.833679700000000024e-01 -3.635730600000000035e-01 -3.207790500000000100e-01 -1.861296299999999904e-01 -1.258866700000000061e-01 -1.262088700000000008e-01 -1.015823700000000052e-01 -5.985370400000000063e-02 -4.181678600000000162e-02 4.464758099999999869e-02 -2.538322700000000126e-02 3.157901300000000300e-02 5.968798599999999843e-02 6.560353900000000411e-03 8.216856399999999949e-02 1.087825699999999951e-01 1.924040300000000037e-01 1.527796800000000010e-01 1.804204000000000085e-01 2.121662099999999940e-01 1.671611000000000069e-01 2.936200299999999763e-01 3.772006199999999865e-01 4.428817099999999840e-01 3.129818799999999901e-01 4.652214800000000205e-01 5.125320100000000378e-01 5.512964599999999882e-01 5.454475899999999822e-01 5.697219399999999823e-01 5.814544000000000379e-01 6.204960800000000054e-01 6.661884500000000431e-01 5.756783899999999843e-01 5.637175500000000117e-01 6.471976299999999682e-01 6.053061499999999873e-01 4.728935799999999801e-01 5.349284899999999787e-01 5.522834300000000196e-01 4.894382500000000191e-01 4.207931500000000047e-01 4.200886899999999868e-01 3.983420200000000189e-01 3.945947100000000152e-01 3.451739799999999914e-01 3.028171000000000057e-01 4.199725300000000106e-01 3.321465299999999954e-01 3.994267100000000181e-01 2.924351600000000273e-01 3.779852899999999738e-01 3.346432100000000243e-01 3.110881400000000130e-01 3.035367299999999768e-01 2.631702200000000103e-01 4.206964999999999733e-01 5.928934000000000148e-01 9.736203500000000233e-01 1.217435299999999998e+00 1.381907999999999914e+00 1.508138299999999932e+00 1.733503000000000016e+00 1.919992099999999979e+00 1.787192700000000078e+00 1.757424700000000062e+00 1.541933999999999916e+00 1.350767300000000004e+00 1.176835800000000098e+00 8.391082699999999894e-01 5.565793199999999885e-01 9.728081299999999376e-02 -1.821378100000000111e-01 -3.516917399999999749e-01 -2.539834999999999732e-01 -2.649405899999999758e-01 -2.433510700000000027e-01 -2.772001700000000235e-01 -3.100450299999999992e-01 -2.450960000000000083e-01 -2.561209700000000034e-01 -2.231428099999999970e-01 -2.898120200000000035e-01 -2.069458499999999868e-01 -1.560767100000000074e-01 -1.545078199999999902e-01 -1.145584399999999975e-01 1.816120200000000129e-01 6.070991799999999605e-01 1.330932900000000085e+00 1.499883499999999925e+00 1.304713800000000035e+00 1.148369200000000090e+00 7.584092500000000348e-01 5.777363699999999991e-01 6.155549099999999552e-01 1.228841800000000095e+00 -9.371647600000000411e-01
2.000000000000000000e+00 1.403863899999999942e+00 1.340657800000000011e+00 9.755876300000000390e-01 2.316968000000000083e-01 -3.088180999999999843e-01 -6.834936499999999526e-01 -9.699308199999999713e-01 -1.276970500000000008e+00 -1.517160499999999912e+00 -1.556433799999999978e+00 -1.380516999999999994e+00 -1.065769799999999989e+00 -7.731911200000000095e-01 -5.354751700000000003e-01 -3.740687200000000212e-01 -3.648566500000000046e-01 -2.620030600000000098e-01 8.564569900000000569e-02 3.909835500000000130e-01 4.195218800000000137e-01 4.072980299999999776e-01 5.082559899999999908e-01 5.086838500000000485e-01 4.520331799999999789e-01 4.853687500000000155e-01 4.666077299999999983e-01 4.087605200000000161e-01 4.289505599999999808e-01 4.554182500000000244e-01 4.515709500000000265e-01 4.693280200000000124e-01 4.407920699999999803e-01 3.350724700000000111e-01 3.871556400000000231e-01 3.942730700000000033e-01 3.596011199999999963e-01 3.923280000000000101e-01 3.542369899999999738e-01 3.932103499999999863e-01 3.486972300000000247e-01 3.582506699999999933e-01 3.600858599999999798e-01 3.429400300000000068e-01 3.433600900000000067e-01 2.563353600000000121e-01 3.103021899999999778e-01 2.797014099999999837e-01 2.535199000000000202e-01 2.960031000000000190e-01 2.527636600000000011e-01 1.834070299999999987e-01 1.631061500000000053e-01 2.336013000000000117e-01 2.475838599999999889e-01 2.169722799999999896e-01 2.228311500000000056e-01 1.674039300000000063e-01 1.462236000000000091e-01 1.583765099999999981e-01 1.403280399999999872e-01 1.339131600000000033e-01 3.568980499999999806e-02 8.377224099999999729e-02 1.509930499999999898e-01 4.874739200000000050e-02 1.111180999999999974e-01 1.777392700000000048e-01 1.057959499999999997e-01 1.064034600000000053e-01 6.858674600000000399e-02 9.582083800000000540e-02 1.118646699999999994e-01 9.209003500000000064e-02 1.885433499999999984e-01 1.999585600000000074e-01 1.849194200000000010e-01 1.576873599999999986e-01 1.964004299999999870e-01 2.180844700000000025e-01 2.409685099999999969e-01 3.511996900000000088e-01 3.932726500000000014e-01 4.136885200000000040e-01 3.846888099999999922e-01 3.787718999999999947e-01 4.114835099999999968e-01 4.551641499999999896e-01 5.237298000000000231e-01 5.494755999999999529e-01 5.497193900000000299e-01 5.448567300000000113e-01 5.851473799999999947e-01 6.288685299999999812e-01 6.155358499999999955e-01 5.824070300000000477e-01 6.154695399999999816e-01 6.469030300000000455e-01 5.918243899999999780e-01 6.324111900000000119e-01 7.138284599999999980e-01 7.132657900000000106e-01 6.382745399999999458e-01 6.394981800000000272e-01 7.040938700000000106e-01 6.356730099999999828e-01 6.305924400000000318e-01 6.766548999999999481e-01 6.974363000000000090e-01 7.021793800000000196e-01 6.815881599999999985e-01 6.630895100000000486e-01 6.439757000000000398e-01 7.354894100000000101e-01 7.937268899999999627e-01 7.129765999999999604e-01 7.736817499999999459e-01 7.721871099999999544e-01 5.845402200000000548e-01 4.917450099999999824e-01 3.618943000000000021e-01 2.758909500000000237e-01 2.800382200000000044e-01 1.583777299999999943e-01 -4.386540600000000262e-02 -1.936234000000000011e-01 -3.336855499999999974e-01 -6.125688700000000431e-01 -9.699489000000000027e-01 -1.149943099999999996e+00 -1.246869500000000075e+00 -1.505635300000000010e+00 -1.942898199999999909e+00 -2.320405899999999910e+00 -2.794967399999999991e+00 -3.325763400000000036e+00 -3.487299800000000172e+00 -4.134183900000000023e+00 -3.952486799999999967e+00 -4.063521500000000231e+00 -2.326753399999999861e+00
1.000000000000000000e+00 -1.372501399999999983e+00 -3.475350099999999998e+00 -4.371036799999999722e+00 -4.537476700000000029e+00 -3.571505300000000105e+00 -2.556782399999999900e+00 -1.680558500000000066e+00 -1.469759999999999955e+00 -8.259231299999999498e-01 -3.495422300000000093e-01 -2.582228100000000248e-01 -1.932924400000000098e-01 -3.233187100000000092e-01 -2.633037699999999925e-01 -2.649806599999999790e-01 -2.828424099999999886e-01 -2.793099499999999735e-01 -3.642692299999999994e-01 -3.598390100000000147e-01 -3.951715700000000275e-01 -4.556424199999999924e-01 -4.176524500000000084e-01 -4.667784899999999904e-01 -4.011962700000000215e-01 -4.175928799999999996e-01 -4.896150000000000224e-01 -4.830030100000000104e-01 -5.867641500000000399e-01 -6.537446300000000488e-01 -6.120537700000000525e-01 -7.203047900000000281e-01 -6.686913100000000387e-01 -6.717941600000000291e-01 -7.100562999999999736e-01 -7.493498600000000343e-01 -7.399054099999999856e-01 -8.193584800000000001e-01 -8.043196700000000421e-01 -7.689942899999999693e-01 -6.617842299999999733e-01 -5.413704999999999767e-01 -4.399342800000000109e-01 -3.717125499999999749e-01 -2.661814699999999756e-01 -1.366478000000000137e-01 -1.494152900000000062e-01 -6.079816799999999966e-02 1.041252200000000044e-02 8.082656900000000089e-02 9.096970699999999688e-02 1.018506899999999937e-01 7.843215000000000603e-02 1.369961600000000057e-01 3.065018099999999857e-02 1.862987099999999924e-02 5.305538099999999868e-02 8.680278600000000677e-02 8.256081699999999468e-02 1.147098399999999935e-01 1.966982200000000069e-01 9.563827599999999429e-02 1.180696100000000054e-01 2.399174400000000096e-01 3.113643099999999775e-01 2.370558100000000057e-01 2.937332300000000118e-01 2.820656200000000169e-01 2.971525700000000048e-01 4.328299500000000188e-01 5.097119900000000037e-01 6.297312600000000149e-01 6.677257399999999565e-01 5.472027200000000313e-01 6.068767000000000467e-01 6.071390500000000134e-01 6.556763199999999792e-01 6.529427700000000057e-01 5.826879799999999943e-01 6.341405500000000250e-01 6.570021299999999620e-01 6.063128100000000353e-01 5.539194299999999904e-01 5.864026500000000253e-01 5.768141399999999752e-01 4.099311400000000272e-01 4.622810399999999764e-01 4.052610799999999958e-01 4.175488800000000111e-01 4.682663400000000031e-01 4.306147799999999748e-01 3.555312299999999759e-01 3.574252700000000171e-01 3.019264899999999918e-01 3.210580499999999837e-01 4.704567100000000002e-01 5.860058700000000398e-01 8.108892199999999661e-01 8.491426600000000491e-01 1.030818299999999965e+00 1.213390100000000027e+00 1.446543799999999935e+00 1.766794600000000104e+00 1.919464499999999907e+00 1.778014699999999948e+00 1.802172200000000002e+00 1.686458800000000036e+00 1.478892700000000060e+00 1.290542700000000043e+00 9.585034799999999633e-01 7.014522199999999597e-01 3.082398000000000082e-01 -1.383064400000000027e-01 -2.033021399999999923e-01 -2.693599099999999802e-01 -3.116388199999999831e-01 -3.397261699999999940e-01 -3.656121800000000088e-01 -3.007443100000000147e-01 -3.483577299999999766e-01 -3.060697399999999790e-01 -3.153212799999999816e-01 -3.999989199999999800e-01 -4.019212699999999971e-01 -3.017614200000000024e-01 -2.656894200000000095e-01 -1.904788199999999931e-01 -1.854814800000000041e-01 -6.855150899999999659e-02 3.396317999999999837e-01 9.818777199999999539e-01 1.201414800000000005e+00 1.138134299999999932e+00 1.294625399999999926e+00 1.409669899999999920e+00 1.103201899999999958e+00 6.291213100000000447e-01 8.151659100000000491e-01 1.168492400000000098e+00 8.336357100000000298e-01 -1.235335400000000083e+00
5.000000000000000000e+00 3.698752100000000098e-01 -1.842447100000000004e+00 -3.458431899999999892e+00 -4.346415300000000315e+00 -4.370114599999999960e+00 -3.362736700000000134e+00 -2.404774900000000049e+00 -1.712536400000000070e+00 -1.637347499999999956e+00 -8.410442099999999588e-01 -3.135509000000000213e-01 -3.753362700000000274e-01 -2.644320000000000004e-01 -3.391535199999999861e-01 -3.222419699999999887e-01 -3.361565300000000089e-01 -3.028416099999999833e-01 -2.543195899999999843e-01 -3.251284199999999736e-01 -2.829057300000000219e-01 -3.930157699999999865e-01 -4.284637600000000268e-01 -4.758540099999999939e-01 -4.216014100000000098e-01 -4.056077900000000236e-01 -5.614259600000000017e-01 -5.811694600000000266e-01 -5.561935500000000365e-01 -5.951954499999999593e-01 -6.335221199999999664e-01 -6.723432499999999479e-01 -6.411496199999999757e-01 -7.286336399999999713e-01 -7.691957200000000272e-01 -6.817516900000000213e-01 -7.664132000000000167e-01 -8.389325399999999489e-01 -8.713314699999999968e-01 -8.766560799999999487e-01 -8.966519600000000256e-01 -8.492152200000000484e-01 -8.668483099999999553e-01 -8.163805600000000329e-01 -7.219465499999999647e-01 -6.609679299999999813e-01 -6.649163000000000157e-01 -6.276189500000000088e-01 -4.408873500000000112e-01 -3.503829500000000263e-01 -2.066387899999999889e-01 -1.789190200000000119e-01 -8.266663500000000220e-02 1.736490400000000045e-02 1.976866299999999969e-03 -3.400331300000000029e-02 -6.334283399999999717e-03 6.801624300000000400e-02 -2.670248200000000134e-03 1.055308199999999974e-01 1.678812100000000029e-01 9.672162600000000499e-02 1.453764300000000009e-01 2.022980900000000137e-01 2.073036699999999954e-01 2.342143999999999893e-01 2.981221399999999799e-01 2.944582900000000114e-01 2.253178700000000034e-01 2.495230900000000029e-01 4.065561400000000103e-01 4.243479800000000135e-01 4.169768899999999889e-01 4.669361399999999995e-01 5.470933700000000233e-01 5.000747899999999913e-01 5.851840200000000269e-01 6.825936200000000120e-01 7.239708200000000149e-01 6.960788300000000373e-01 6.649911600000000256e-01 6.831888299999999692e-01 6.508062900000000095e-01 6.858334000000000374e-01 8.060732499999999634e-01 6.301173500000000205e-01 7.358339999999999881e-01 7.070530600000000110e-01 6.611030900000000043e-01 7.272437099999999877e-01 5.661691500000000099e-01 5.976794800000000407e-01 6.602559700000000253e-01 6.717563399999999518e-01 5.020787399999999678e-01 5.472125500000000198e-01 6.160832400000000320e-01 4.833987399999999934e-01 5.112900700000000409e-01 4.941242100000000081e-01 4.777168999999999999e-01 4.068926299999999774e-01 4.391503299999999776e-01 4.595950799999999892e-01 4.868159899999999762e-01 3.913121299999999803e-01 4.201471600000000195e-01 5.280115699999999856e-01 7.898669499999999566e-01 9.309625099999999653e-01 1.168905899999999942e+00 1.270238999999999896e+00 1.496718800000000016e+00 1.594155999999999906e+00 1.833129000000000008e+00 2.004699599999999915e+00 1.907216699999999987e+00 1.896357000000000070e+00 1.771411999999999987e+00 1.557559700000000102e+00 1.368268100000000098e+00 1.208326299999999964e+00 1.045587400000000056e+00 7.963765800000000006e-01 3.461372600000000022e-01 1.240138600000000035e-02 -8.690734699999999244e-03 -8.343661599999999817e-03 -7.309282599999999963e-02 -1.927417600000000120e-01 -1.425800100000000070e-01 -1.148688399999999998e-01 -6.006120899999999735e-02 -7.511577999999999311e-02 -9.957574700000000611e-02 -1.316303699999999965e-01 -8.647050100000000517e-02 -6.965656500000000362e-02 -5.237254400000000004e-02 6.465956200000000376e-02 1.039129000000000025e-01
1.000000000000000000e+00 -6.845474400000000070e-01 -2.485875300000000010e+00 -3.484140700000000201e+00 -4.112616400000000283e+00 -3.673212700000000108e+00 -3.097595300000000051e+00 -2.102181100000000136e+00 -1.512110300000000018e+00 -1.249673500000000104e+00 -7.002776200000000451e-01 -5.018417499999999754e-01 -4.307245800000000235e-01 -4.487616099999999775e-01 -5.227664100000000147e-01 -4.456675999999999971e-01 -4.003637500000000182e-01 -4.233856699999999917e-01 -4.005621699999999952e-01 -4.074809400000000137e-01 -4.729407099999999864e-01 -5.025598100000000512e-01 -5.232457900000000439e-01 -5.324318200000000001e-01 -5.730493599999999521e-01 -5.692835299999999821e-01 -5.970614899999999725e-01 -7.022013799999999861e-01 -6.821925399999999584e-01 -6.749063100000000093e-01 -6.852573699999999768e-01 -7.551273200000000463e-01 -8.230690400000000295e-01 -8.499948400000000293e-01 -8.065648699999999893e-01 -8.967478500000000130e-01 -9.169313799999999626e-01 -8.429313800000000079e-01 -8.567512900000000542e-01 -7.708140599999999676e-01 -8.295818499999999540e-01 -7.604970899999999867e-01 -7.414282800000000506e-01 -5.876319100000000351e-01 -5.298093400000000175e-01 -5.167471000000000148e-01 -3.819829499999999878e-01 -4.038811400000000273e-01 -3.811984700000000115e-01 -2.992806100000000025e-01 -3.024609699999999957e-01 -2.933215800000000262e-01 -2.468209199999999992e-01 -2.642242300000000044e-01 -2.035405499999999868e-01 -2.399162200000000134e-01 -2.783576999999999857e-01 -1.700784300000000027e-01 -1.779135000000000022e-01 -2.452869000000000022e-01 -2.044991499999999907e-01 -1.742316200000000037e-01 -1.887529500000000027e-01 -1.401953300000000069e-01 -1.898470100000000105e-01 -1.250379399999999863e-01 -6.684276999999999580e-02 -6.479791799999999775e-03 8.211700600000000627e-02 8.014820999999999751e-02 1.066161000000000053e-01 1.529005099999999895e-01 2.409190099999999890e-01 2.519962600000000275e-01 2.815328999999999748e-01 2.722077500000000261e-01 3.752040099999999767e-01 3.450416800000000173e-01 3.655250600000000127e-01 3.584993599999999891e-01 4.360782999999999743e-01 4.106916099999999847e-01 4.460590300000000230e-01 4.341870700000000083e-01 4.543486800000000048e-01 4.113190700000000088e-01 4.063463700000000123e-01 3.226479600000000114e-01 3.836026100000000105e-01 3.829371599999999987e-01 3.125644200000000095e-01 3.705946399999999752e-01 3.308175600000000105e-01 3.584664100000000131e-01 4.288564699999999896e-01 4.361033200000000165e-01 6.139536899999999964e-01 7.629381400000000424e-01 9.458377000000000034e-01 1.018522200000000044e+00 1.129602699999999960e+00 1.325315800000000044e+00 1.618397899999999945e+00 1.775509000000000004e+00 1.776423099999999922e+00 1.774971999999999994e+00 1.677300299999999966e+00 1.538752200000000014e+00 1.394978700000000016e+00 1.185656400000000055e+00 9.520691900000000096e-01 7.275707700000000333e-01 4.331859299999999968e-01 2.696585300000000074e-01 1.710119599999999906e-01 1.762580099999999927e-01 2.077521099999999898e-01 1.691818999999999962e-01 2.123766500000000002e-01 3.062849999999999739e-01 2.738874399999999820e-01 2.947073800000000188e-01 2.537422100000000236e-01 2.880805399999999961e-01 3.192734700000000037e-01 3.173474299999999859e-01 3.228346000000000271e-01 3.477240699999999962e-01 4.234842200000000223e-01 5.270835099999999773e-01 9.207555899999999571e-01 1.353869100000000048e+00 1.390703900000000104e+00 1.532499499999999903e+00 1.636914800000000003e+00 1.626474799999999998e+00 1.354266900000000051e+00 1.227118200000000048e+00 1.581587199999999971e+00 1.897382899999999983e+00 7.761175300000000554e-01
5.000000000000000000e+00 6.382793500000000231e-01 -1.059149200000000013e+00 -2.674849599999999938e+00 -3.738886200000000049e+00 -3.478533500000000167e+00 -2.645622299999999871e+00 -1.586697400000000036e+00 -1.233719199999999905e+00 -9.328806499999999780e-01 -2.421505700000000094e-01 -1.401939500000000116e-01 -2.061790400000000079e-01 -1.768693299999999913e-01 -1.281150799999999923e-01 -1.054973599999999984e-01 -9.962325499999999390e-02 -1.345119399999999965e-01 -1.071316100000000021e-01 -2.181035799999999913e-01 -1.566425300000000020e-01 -2.465682700000000060e-01 -2.819526299999999819e-01 -2.411526800000000081e-01 -2.431110400000000005e-01 -3.355078799999999806e-01 -3.777471800000000157e-01 -4.257642700000000002e-01 -4.809198499999999821e-01 -4.304269900000000093e-01 -5.355044899999999997e-01 -6.323114100000000182e-01 -6.203149000000000024e-01 -6.260876699999999850e-01 -5.455701299999999865e-01 -5.997441199999999917e-01 -5.592207700000000337e-01 -4.792321500000000234e-01 -4.042888099999999985e-01 -3.286136800000000191e-01 -2.693453499999999834e-01 -1.416465600000000047e-01 -7.978085600000000416e-03 7.361343500000000484e-02 1.166375199999999945e-01 1.414492099999999919e-01 1.932338500000000125e-01 1.239464499999999997e-01 1.548278200000000049e-01 1.021193199999999995e-01 2.399047599999999947e-01 1.716897400000000073e-01 2.212037699999999940e-01 2.947184800000000049e-01 1.986562500000000064e-01 2.480552000000000035e-01 1.986731700000000100e-01 2.827316500000000010e-01 2.973300400000000177e-01 4.033688100000000221e-01 3.750183599999999950e-01 3.513370599999999788e-01 4.467307400000000150e-01 4.078915300000000022e-01 5.054530900000000493e-01 5.290225100000000014e-01 6.201878499999999850e-01 6.125151500000000082e-01 6.034545199999999943e-01 5.841816600000000470e-01 6.028483700000000223e-01 6.428957400000000488e-01 5.265894500000000145e-01 5.481409900000000501e-01 5.291947000000000179e-01 5.794158299999999651e-01 5.946702799999999955e-01 5.429341899999999832e-01 5.496081499999999620e-01 4.337344100000000147e-01 4.548976299999999973e-01 5.228119700000000147e-01 4.385954200000000136e-01 4.727358899999999919e-01 5.118617500000000042e-01 5.021864099999999720e-01 5.893326700000000029e-01 6.955273600000000389e-01 9.718009699999999862e-01 1.088766499999999970e+00 1.267479199999999917e+00 1.490945100000000023e+00 1.722225300000000070e+00 1.803875099999999954e+00 1.719163900000000078e+00 1.678210399999999991e+00 1.510977000000000015e+00 1.359670799999999957e+00 1.107234199999999946e+00 8.798106500000000274e-01 5.564125399999999555e-01 1.888725800000000121e-01 -7.008831999999999562e-02 -1.222999800000000026e-01 -1.102463199999999949e-01 -1.177924800000000050e-01 -8.790737399999999646e-02 -1.757509899999999958e-01 -1.133113599999999999e-01 -7.437716499999999509e-02 -1.582027400000000084e-01 -8.344082799999999467e-02 -9.259450900000000539e-02 -6.001901300000000300e-02 3.046711599999999895e-02 1.386037699999999873e-01 2.616207600000000078e-01 8.552065699999999993e-01 1.183863200000000004e+00 1.019969899999999985e+00 1.040588400000000080e+00 1.047864799999999930e+00 9.315671399999999602e-01 7.940057400000000154e-01 1.173939999999999984e+00 1.515433599999999936e+00 4.158258100000000179e-01 -1.523525999999999936e+00 -3.153506699999999885e+00 -3.682747500000000063e+00 -3.118475500000000178e+00 -2.206870299999999840e+00 -1.212922300000000009e+00 -1.172796799999999973e+00 -5.801975499999999508e-01 -1.061432199999999965e-01 -1.411703800000000120e-01 -1.443648200000000048e-01 -1.189229100000000067e-01 -9.775533000000000139e-02 -2.248179499999999886e-01
1.000000000000000000e+00 9.583321500000000492e-01 -2.031313800000000142e-02 -1.719209500000000057e+00 -3.075816500000000175e+00 -4.129220600000000019e+00 -4.238698399999999644e+00 -3.081233099999999947e+00 -2.103873300000000057e+00 -1.754631300000000005e+00 -7.143048600000000414e-01 4.639926400000000256e-02 -6.622837299999999316e-02 -1.986923999999999982e-02 -8.239341499999999763e-02 -9.461562199999999645e-02 -1.376275899999999941e-01 -1.463325199999999937e-01 -6.086589500000000319e-02 -1.617361800000000072e-01 -6.884167800000000337e-02 -1.779471300000000089e-01 -2.684338800000000136e-01 -3.213928899999999866e-01 -2.900545900000000010e-01 -4.340545499999999834e-01 -4.867929100000000231e-01 -4.837238799999999950e-01 -6.023882000000000403e-01 -6.574274100000000454e-01 -7.754764800000000236e-01 -8.987392800000000292e-01 -8.757018300000000144e-01 -9.914797199999999533e-01 -1.146261100000000033e+00 -1.101175100000000073e+00 -1.127988299999999944e+00 -1.161945500000000076e+00 -1.140722999999999931e+00 -1.119375900000000090e+00 -1.111646200000000029e+00 -9.839463200000000409e-01 -8.052199100000000387e-01 -7.298622200000000060e-01 -6.328209000000000195e-01 -4.966446500000000208e-01 -2.716662400000000033e-01 -1.954992600000000080e-01 -9.545057599999999531e-02 -1.330347200000000021e-02 6.356204899999999547e-02 1.611630699999999985e-02 1.440544900000000073e-01 4.570969899999999947e-02 1.316443300000000038e-01 8.603563699999999814e-02 2.184608500000000120e-01 2.119514399999999910e-01 1.901801100000000133e-01 1.677239199999999986e-01 1.690885099999999974e-01 2.854132600000000020e-01 3.583284400000000258e-01 1.717342900000000117e-01 3.244277400000000200e-01 4.548688200000000070e-01 3.700349399999999789e-01 5.825867999999999602e-01 5.271021399999999968e-01 5.811231500000000327e-01 6.944752699999999779e-01 6.778777200000000169e-01 7.126218899999999801e-01 7.310869100000000342e-01 6.935741100000000214e-01 6.817544300000000224e-01 6.954743599999999581e-01 7.445199700000000309e-01 7.847903499999999699e-01 6.719651399999999608e-01 7.341216000000000408e-01 6.070508100000000518e-01 6.533461600000000091e-01 5.165173499999999862e-01 5.521138799999999458e-01 4.433073299999999994e-01 4.881867100000000237e-01 2.757550200000000173e-01 4.651956099999999816e-01 2.982696499999999973e-01 1.956608599999999920e-01 2.913354400000000011e-01 2.871290599999999915e-01 1.545125999999999999e-01 1.341647499999999993e-01 3.464205300000000043e-01 2.029347999999999985e-01 1.361844600000000072e-01 1.563572900000000099e-01 1.665399700000000094e-01 2.049594000000000138e-01 1.866789500000000102e-01 3.577113399999999888e-01 7.173119599999999707e-01 1.112059300000000084e+00 1.284452799999999950e+00 1.445833499999999994e+00 1.596236800000000011e+00 2.173596600000000212e+00 2.435111200000000142e+00 2.320363599999999860e+00 2.168477199999999883e+00 1.938795800000000069e+00 1.586764300000000016e+00 1.421040000000000081e+00 1.087498099999999912e+00 2.954313900000000159e-01 -2.819207300000000083e-01 -4.240893900000000105e-01 -4.786655000000000215e-01 -4.512864799999999899e-01 -4.771948200000000195e-01 -4.059317000000000064e-01 -3.332196700000000233e-01 -4.317266799999999738e-01 -4.864496099999999768e-01 -3.841336599999999879e-01 -3.952997100000000263e-01 -4.666049600000000130e-01 -4.808245099999999828e-01 -5.539622899999999683e-01 -3.400365100000000140e-01 -3.984906599999999965e-01 2.267607399999999884e-01 9.697819100000000248e-01 8.309455999999999509e-01 1.005319499999999922e+00 1.054379399999999967e+00 8.715104999999999658e-01 3.050483800000000079e-01 -3.140099899999999888e-02
2.000000000000000000e+00 -1.082566799999999940e+00 -2.037982599999999866e+00 -2.283882499999999816e+00 -2.627103500000000036e+00 -2.544449600000000089e+00 -2.587142699999999795e+00 -2.361911500000000164e+00 -2.157920299999999791e+00 -1.730586500000000028e+00 -1.165780800000000061e+00 -8.134016699999999656e-01 -6.713571499999999581e-01 -6.229658500000000432e-01 -3.841535300000000208e-01 8.452353999999999814e-04 2.554860800000000043e-01 3.037233300000000136e-01 2.985677899999999996e-01 3.429940200000000106e-01 3.501781400000000266e-01 3.604362199999999739e-01 4.095028800000000135e-01 3.025516799999999895e-01 2.332595399999999874e-01 3.452016399999999763e-01 3.676407500000000161e-01 3.654887199999999892e-01 3.997573899999999902e-01 3.517055599999999727e-01 3.810005499999999934e-01 3.645456799999999831e-01 2.653635999999999773e-01 2.727159299999999953e-01 2.561476200000000203e-01 2.818981300000000245e-01 2.752554300000000231e-01 2.254876700000000012e-01 2.642875800000000219e-01 2.520312499999999845e-01 2.164837900000000093e-01 2.187402499999999972e-01 2.063593099999999902e-01 1.804562000000000110e-01 8.711191799999999652e-02 4.473110500000000017e-02 1.154414700000000044e-01 9.355970900000000479e-02 7.613198999999999661e-02 6.086156499999999941e-02 -2.013271900000000031e-02 1.632144799999999882e-02 4.148929800000000084e-02 -3.038953200000000035e-02 -1.052101000000000078e-02 -7.744321200000000259e-03 -3.568929900000000072e-02 4.294659199999999871e-02 3.705082199999999715e-02 -4.132356000000000223e-03 8.166382599999999492e-02 9.976981399999999833e-02 1.236706100000000003e-01 1.587502399999999869e-01 1.384487799999999935e-01 1.743823200000000073e-01 1.874278600000000017e-01 2.585773399999999889e-01 3.042810799999999816e-01 3.048424299999999976e-01 4.106213699999999855e-01 4.277603200000000272e-01 3.989442999999999739e-01 4.879238499999999923e-01 4.788932599999999873e-01 4.188466299999999976e-01 5.199945599999999946e-01 5.608669899999999542e-01 5.065001399999999876e-01 5.480821000000000165e-01 5.653739199999999743e-01 5.398005099999999556e-01 6.165992900000000221e-01 6.575348100000000251e-01 5.864262500000000378e-01 5.585143799999999770e-01 6.069616500000000192e-01 6.865116300000000393e-01 6.862369099999999777e-01 6.341676299999999822e-01 6.213892100000000251e-01 6.344909600000000482e-01 6.599795899999999493e-01 5.883575100000000280e-01 6.285933400000000004e-01 6.977880100000000141e-01 5.944570000000000132e-01 5.956442699999999757e-01 6.527394399999999486e-01 6.684285300000000207e-01 6.535223700000000191e-01 7.119963999999999738e-01 7.526148000000000282e-01 6.808352500000000029e-01 6.963507199999999786e-01 6.734364699999999537e-01 6.900634199999999829e-01 7.974052299999999649e-01 8.110611500000000085e-01 7.752276900000000248e-01 7.562056600000000017e-01 7.749165999999999555e-01 7.744145599999999741e-01 7.857596900000000106e-01 7.654321200000000491e-01 7.625853500000000507e-01 8.167084799999999589e-01 7.193220200000000064e-01 6.168026300000000184e-01 5.896690100000000490e-01 5.582910500000000109e-01 5.926511500000000154e-01 6.030024999999999968e-01 5.132447399999999771e-01 3.774025799999999875e-01 2.209011600000000131e-01 1.414122999999999908e-01 1.762815500000000091e-01 3.201695399999999747e-01 3.435003799999999941e-01 -5.571865200000000046e-02 -4.938602799999999848e-01 -9.744771300000000247e-01 -1.539366500000000082e+00 -2.150494600000000034e+00 -2.770620599999999989e+00 -3.403633600000000037e+00 -4.003381599999999985e+00 -3.362323200000000067e+00 -3.097360600000000019e+00 -1.454136199999999990e+00
1.000000000000000000e+00 5.248396800000000306e-01 -1.360937499999999911e+00 -2.855315200000000164e+00 -4.540137399999999879e+00 -4.860684700000000191e+00 -3.964690099999999884e+00 -2.561306699999999825e+00 -1.849654099999999968e+00 -1.367842800000000025e+00 -3.745378400000000108e-01 -6.567723899999999837e-02 -9.103875599999999846e-02 -5.878865999999999953e-02 -1.955004399999999906e-02 -1.057368700000000002e-02 -9.190731300000000437e-02 -7.237124200000000229e-03 2.118056600000000136e-02 -2.534855199999999989e-02 -8.396090300000000339e-02 -8.125707899999999595e-02 -1.402162700000000040e-01 -1.933194500000000038e-01 -2.073536300000000110e-01 -3.243353600000000170e-01 -3.680114099999999833e-01 -3.557968699999999873e-01 -3.722676999999999792e-01 -5.154499000000000164e-01 -5.291637000000000146e-01 -6.624023700000000181e-01 -7.819984399999999614e-01 -8.436191499999999843e-01 -8.252864899999999837e-01 -8.432045599999999919e-01 -8.331512800000000496e-01 -8.183338399999999790e-01 -8.482932600000000489e-01 -7.742497600000000091e-01 -8.129446999999999646e-01 -7.507044499999999676e-01 -6.393263799999999719e-01 -4.565992199999999723e-01 -3.779964599999999786e-01 -2.485592799999999936e-01 -1.825279999999999958e-01 -1.973303999999999891e-01 -8.719348999999999850e-02 -1.971254000000000062e-02 -2.472227600000000136e-02 -6.010714100000000282e-02 -1.078984600000000016e-01 -3.349306600000000189e-02 4.123325199999999802e-02 1.166233099999999974e-02 -5.073981600000000008e-02 4.355916099999999902e-02 1.023376299999999989e-03 2.940418300000000040e-02 8.500155299999999359e-02 8.423665700000000645e-02 2.236214599999999941e-01 2.268662599999999863e-01 2.764330400000000187e-01 2.480182900000000024e-01 2.009656499999999957e-01 3.575722700000000254e-01 3.307381899999999875e-01 4.543463300000000205e-01 5.146029699999999929e-01 5.398203000000000307e-01 6.960214700000000310e-01 5.711227899999999913e-01 7.299062800000000184e-01 7.238607500000000528e-01 6.847050000000000081e-01 8.120824700000000007e-01 8.183876799999999507e-01 8.059111300000000311e-01 7.811655499999999863e-01 7.579799999999999871e-01 6.485110600000000280e-01 6.273533799999999605e-01 5.759515200000000501e-01 5.315142899999999448e-01 5.096357400000000037e-01 3.432659699999999758e-01 4.076304499999999775e-01 4.255338399999999965e-01 3.520255400000000257e-01 3.316508200000000128e-01 2.986574000000000173e-01 2.016185600000000022e-01 2.792562199999999994e-01 3.509990800000000188e-01 2.628093100000000182e-01 2.967366599999999854e-01 4.215655500000000111e-01 5.832754599999999678e-01 8.287281399999999465e-01 9.804476899999999828e-01 1.067921099999999957e+00 1.180722199999999944e+00 1.476813300000000106e+00 1.634688799999999942e+00 1.584480899999999970e+00 1.501315100000000013e+00 1.370723499999999984e+00 1.071883700000000106e+00 8.295492199999999761e-01 6.599590600000000418e-01 4.701582300000000103e-01 3.422440800000000061e-01 -6.373389200000000032e-02 -4.287452600000000169e-01 -4.294202699999999928e-01 -4.940496400000000121e-01 -4.499647999999999981e-01 -5.273403599999999525e-01 -4.352040400000000142e-01 -4.928194300000000028e-01 -5.257902199999999748e-01 -4.748871900000000146e-01 -4.999484799999999729e-01 -4.487361100000000214e-01 -4.345054999999999890e-01 -5.602042799999999989e-01 -4.851283499999999860e-01 -3.277358699999999847e-01 -2.507225699999999780e-01 4.128113500000000213e-01 9.671143599999999507e-01 9.938439300000000420e-01 1.217441500000000065e+00 1.809305500000000011e+00 1.824049299999999985e+00 1.486501099999999909e+00 8.686356100000000025e-01 1.238719600000000032e+00 1.023374299999999959e+00
2.000000000000000000e+00 -5.283658199999999860e-01 -1.351352099999999945e+00 -1.823996399999999962e+00 -2.234138699999999922e+00 -2.534263499999999780e+00 -2.592461199999999799e+00 -2.421462200000000120e+00 -2.122154099999999932e+00 -1.722132100000000055e+00 -1.099030900000000033e+00 -6.272915999999999492e-01 -5.319507399999999775e-01 -4.290461199999999753e-01 -1.555330400000000113e-01 1.365457300000000040e-01 2.470688099999999998e-01 2.117394099999999890e-01 2.038909999999999889e-01 2.634099899999999828e-01 2.751403099999999990e-01 2.300651400000000013e-01 2.480563199999999968e-01 2.034090199999999959e-01 2.251175199999999876e-01 2.709589499999999762e-01 3.025602900000000095e-01 3.310428200000000154e-01 2.751137200000000060e-01 2.702066000000000190e-01 3.162921000000000205e-01 3.125032899999999891e-01 2.806335400000000146e-01 2.910483899999999902e-01 3.012647600000000203e-01 2.755702099999999821e-01 2.650881999999999961e-01 3.288118800000000008e-01 3.308725399999999928e-01 2.711335200000000167e-01 2.837369800000000275e-01 3.454785499999999954e-01 3.687483300000000130e-01 2.963987399999999939e-01 3.476540300000000028e-01 3.303146800000000272e-01 2.852371699999999843e-01 2.871942299999999948e-01 2.361354599999999915e-01 3.032452999999999954e-01 3.817253800000000030e-01 3.454785499999999954e-01 3.368279100000000081e-01 4.125822399999999890e-01 3.568458700000000094e-01 3.920722799999999952e-01 4.707823099999999816e-01 4.130816600000000172e-01 3.996994600000000064e-01 4.367974800000000157e-01 4.622242799999999874e-01 4.773795900000000203e-01 4.800508800000000131e-01 4.789715999999999974e-01 5.475515800000000377e-01 4.914045799999999797e-01 5.138498000000000232e-01 5.660370000000000124e-01 5.739604999999999846e-01 6.267757699999999543e-01 5.508956000000000408e-01 5.433301099999999773e-01 5.609262099999999807e-01 5.275423099999999588e-01 4.182065099999999758e-01 3.432324999999999959e-01 4.086216599999999977e-01 4.506779499999999938e-01 4.487351299999999821e-01 5.071923600000000087e-01 4.829545100000000035e-01 3.784538100000000016e-01 4.308617299999999983e-01 5.027215400000000223e-01 4.192975999999999925e-01 3.978554799999999836e-01 4.591559900000000138e-01 4.461041000000000034e-01 4.249462900000000043e-01 4.314699000000000173e-01 4.847319399999999723e-01 4.773795900000000203e-01 3.797013499999999930e-01 4.328455800000000075e-01 4.337186599999999781e-01 4.533974100000000007e-01 4.775506299999999760e-01 4.588369400000000264e-01 4.895640900000000073e-01 5.646734700000000107e-01 5.847344300000000272e-01 5.103548500000000265e-01 6.006192000000000197e-01 6.114532799999999879e-01 6.333204399999999845e-01 6.353924499999999975e-01 6.819967099999999505e-01 6.881449099999999985e-01 6.409602599999999484e-01 6.786808800000000419e-01 6.787230699999999839e-01 7.411816700000000147e-01 7.266105299999999767e-01 7.306734099999999676e-01 6.342864499999999461e-01 4.750914099999999918e-01 3.954802099999999987e-01 4.632429699999999761e-01 5.965027999999999997e-01 6.489384900000000345e-01 6.160117099999999901e-01 5.103548500000000265e-01 4.151892999999999834e-01 1.825064000000000131e-01 5.877177100000000043e-02 9.002277300000000038e-02 3.690837500000000021e-02 -1.515590500000000007e-01 -5.009415299999999682e-01 -1.070325900000000052e+00 -1.776169499999999957e+00 -2.424443199999999798e+00 -3.183627299999999938e+00 -4.002824999999999633e+00 -4.237707900000000194e+00 -3.673322100000000034e+00 -2.495795399999999997e+00 -1.558948400000000012e+00 -8.298756600000000150e-01 -4.856555100000000125e-01 -4.031459800000000149e-01
1.000000000000000000e+00 -8.735764899999999555e-02 -2.067606899999999914e+00 -2.957392000000000021e+00 -3.814220100000000002e+00 -4.325307699999999755e+00 -3.742898299999999789e+00 -2.474130800000000185e+00 -1.947392299999999965e+00 -1.585247300000000026e+00 -7.047302699999999920e-01 -4.585403299999999960e-01 -5.774982199999999510e-01 -4.533964500000000064e-01 -4.866374700000000164e-01 -4.934920600000000102e-01 -4.325977300000000136e-01 -4.371124000000000120e-01 -4.477487299999999837e-01 -4.273126600000000108e-01 -5.480995100000000120e-01 -5.207564199999999976e-01 -6.186465700000000068e-01 -6.150415700000000374e-01 -5.743396800000000191e-01 -6.611563200000000196e-01 -6.078812099999999496e-01 -6.705847900000000417e-01 -7.736100099999999591e-01 -8.033474900000000529e-01 -9.104690399999999517e-01 -9.038644599999999807e-01 -9.963091200000000480e-01 -1.070956800000000042e+00 -1.015072100000000033e+00 -1.023697800000000102e+00 -1.022245199999999965e+00 -1.097568300000000052e+00 -1.038613100000000067e+00 -9.429856899999999875e-01 -1.050926100000000085e+00 -9.278644400000000125e-01 -7.940031499999999909e-01 -8.350147900000000067e-01 -7.288222500000000048e-01 -5.524202799999999858e-01 -5.244010799999999639e-01 -3.238167800000000263e-01 -3.935812799999999778e-01 -2.435101299999999913e-01 -1.221143100000000037e-01 -1.438654900000000125e-01 -1.224612000000000062e-01 -9.758211399999999758e-02 -1.318194999999999957e-02 4.742325700000000338e-02 -3.086833300000000127e-02 1.634019100000000044e-02 -6.364072600000000119e-04 1.172119400000000006e-01 2.143491700000000055e-01 5.968110499999999818e-02 8.182205900000000254e-02 1.481101800000000079e-01 2.203231599999999901e-01 2.357755500000000004e-01 2.924004299999999890e-01 3.779389000000000221e-01 2.703905099999999728e-01 3.695804799999999890e-01 4.951045900000000111e-01 5.055988099999999541e-01 4.434958500000000248e-01 5.585758400000000456e-01 6.766072800000000331e-01 7.374451899999999727e-01 7.087963000000000457e-01 7.984991200000000067e-01 7.455874300000000510e-01 8.020588800000000296e-01 7.872891300000000037e-01 7.920040900000000494e-01 7.190392399999999684e-01 7.549366299999999974e-01 7.430396200000000118e-01 6.969437699999999625e-01 7.199865699999999924e-01 7.537700899999999482e-01 7.308909399999999890e-01 5.890177500000000066e-01 6.029487700000000228e-01 6.389099299999999593e-01 5.490882599999999947e-01 4.603252600000000139e-01 4.800326300000000157e-01 5.307063400000000541e-01 5.483969100000000152e-01 5.785600899999999713e-01 5.893049200000000098e-01 5.961059499999999955e-01 6.417810600000000143e-01 6.248220899999999967e-01 4.745830400000000115e-01 5.762781900000000235e-01 7.838741599999999865e-01 9.457043099999999924e-01 9.685229699999999831e-01 1.176627300000000043e+00 1.537457099999999910e+00 1.527360000000000051e+00 1.488518400000000019e+00 1.091890400000000039e+00 9.593334199999999923e-01 9.019335899999999517e-01 9.646517500000000300e-01 1.002946899999999975e+00 8.228553100000000065e-01 6.485834900000000403e-01 1.587618000000000085e-01 7.806350300000000630e-02 1.158753700000000053e-01 9.701201700000000594e-02 1.044335799999999981e-01 1.131651800000000041e-01 1.500275000000000081e-01 1.316192899999999999e-01 1.869456399999999963e-01 1.512711200000000089e-01 1.381389299999999931e-01 1.837456000000000089e-01 2.178762999999999950e-01 2.500946299999999844e-01 7.186689499999999731e-01 1.423896800000000074e+00 1.335940499999999975e+00 1.357512000000000052e+00 1.532958700000000007e+00 1.457849900000000032e+00 1.249253900000000028e+00 5.058208699999999780e-01 6.598657500000000287e-01
1.000000000000000000e+00 1.341826699999999928e+00 -4.454241199999999790e-01 -2.217838400000000210e+00 -3.356822800000000218e+00 -4.128301699999999741e+00 -3.484104799999999891e+00 -2.431565599999999883e+00 -1.950242299999999984e+00 -1.865766199999999930e+00 -7.608299499999999771e-01 -4.282419700000000273e-01 -5.069380199999999892e-01 -3.344835700000000078e-01 -3.503020000000000023e-01 -4.951890099999999850e-01 -4.334880400000000189e-01 -4.286076200000000225e-01 -4.907655000000000212e-01 -4.256405999999999801e-01 -4.841111200000000059e-01 -6.138683799999999913e-01 -4.863567799999999886e-01 -5.816732100000000516e-01 -5.780190200000000500e-01 -6.930403600000000219e-01 -6.644986299999999790e-01 -7.226055000000000117e-01 -8.272408100000000486e-01 -7.669980400000000476e-01 -8.428522400000000303e-01 -9.042801599999999995e-01 -9.912551600000000240e-01 -9.750890700000000022e-01 -1.001501900000000056e+00 -9.776805800000000213e-01 -9.987088100000000024e-01 -1.044072499999999959e+00 -1.093168899999999999e+00 -1.072382799999999969e+00 -9.321229399999999554e-01 -9.234043400000000457e-01 -8.387253599999999754e-01 -6.208499600000000340e-01 -6.908917900000000056e-01 -5.358890800000000176e-01 -5.891585000000000294e-01 -4.263059299999999996e-01 -3.723630099999999943e-01 -2.598104099999999916e-01 -1.667689300000000097e-01 -1.095677500000000054e-01 1.167738500000000020e-02 -8.393495900000000343e-02 -4.674706800000000273e-02 -6.651660500000000642e-02 -1.533229799999999976e-01 6.638673300000000332e-02 1.495877599999999863e-01 -2.462583700000000111e-02 1.060280900000000054e-01 1.894775399999999999e-01 2.363986200000000037e-01 1.287188999999999972e-01 2.206360599999999950e-01 3.513074800000000053e-01 4.413689900000000166e-01 4.563298700000000263e-01 4.479447300000000132e-01 5.645334100000000133e-01 5.850116800000000339e-01 5.244378899999999621e-01 6.088136800000000237e-01 6.101824599999999821e-01 6.057560899999999693e-01 5.972505299999999462e-01 6.396250900000000073e-01 6.459463800000000422e-01 5.692444700000000024e-01 5.755248899999999557e-01 6.491429100000000174e-01 5.519005999999999634e-01 4.597198499999999854e-01 5.247005200000000036e-01 5.120417600000000125e-01 6.317852299999999754e-01 4.156520100000000162e-01 3.612862099999999965e-01 4.749704900000000229e-01 4.844075700000000095e-01 4.352540400000000087e-01 3.941706999999999850e-01 3.204640100000000213e-01 3.627862000000000031e-01 3.301953599999999933e-01 2.846953099999999792e-01 3.026193300000000197e-01 2.914009399999999972e-01 1.546291200000000088e-01 3.261516899999999941e-01 4.178934100000000207e-01 6.022968699999999842e-01 8.478884599999999550e-01 1.090531600000000045e+00 1.317721499999999990e+00 1.237245799999999951e+00 1.496108299999999947e+00 1.778931500000000110e+00 2.058663899999999991e+00 1.906498800000000049e+00 1.914575700000000102e+00 1.769206800000000079e+00 1.609648900000000049e+00 1.400703000000000031e+00 1.120892500000000069e+00 5.114672000000000107e-01 -2.448042200000000168e-02 -2.556671200000000255e-01 -3.160508899999999732e-01 -2.605783500000000141e-01 -3.592810100000000118e-01 -2.052616499999999899e-01 -2.905218600000000206e-01 -2.105594000000000077e-01 -1.381698100000000040e-01 -2.129658500000000121e-01 -1.153098899999999982e-01 -2.222847199999999912e-01 -2.285169900000000032e-01 -1.619890999999999970e-01 -2.223752499999999965e-01 -1.540762699999999874e-01 1.002441300000000007e-01 5.379278299999999957e-01 9.300127599999999939e-01 1.289312199999999908e+00 1.566973200000000066e+00 1.719838999999999896e+00 1.993356799999999929e+00 1.354180099999999998e+00 1.558940699999999957e+00
1.000000000000000000e+00 -1.441184299999999974e+00 -2.523552099999999854e+00 -3.124016500000000196e+00 -3.668726599999999838e+00 -3.728183000000000025e+00 -3.334454700000000216e+00 -3.030125599999999864e+00 -1.585409499999999916e+00 -8.180262400000000156e-01 -5.108428400000000202e-01 2.197351600000000127e-01 5.315729000000000148e-01 1.918280599999999947e-01 1.910800599999999960e-01 2.969364400000000168e-02 5.227903700000000042e-02 1.777103999999999837e-02 1.830496400000000135e-01 1.053499999999999992e-01 2.114917400000000114e-01 6.281260199999999516e-02 -2.082310699999999903e-01 -3.176693500000000309e-02 -3.404739600000000060e-02 -1.204759700000000017e-01 -1.120433299999999965e-01 -3.593819100000000266e-01 -3.827846899999999830e-01 -5.498307300000000453e-01 -5.145193799999999706e-01 -3.207272800000000035e-01 -4.145125299999999902e-01 -4.375072300000000247e-01 -4.334727600000000125e-01 -9.232337999999999933e-01 -1.060747399999999896e+00 -8.183862600000000320e-01 -7.965791899999999925e-01 -6.376135499999999734e-01 -8.435380199999999995e-01 -6.999131100000000050e-01 -4.843484299999999965e-01 -4.685164299999999837e-01 -5.062136699999999490e-01 -4.033747200000000199e-01 -3.489011799999999774e-01 1.743028199999999972e-01 9.052682600000000468e-02 -1.717308800000000024e-01 1.901474700000000129e-01 7.510740700000000103e-02 -6.821267900000000089e-04 4.333406100000000011e-02 2.276660199999999967e-01 -1.184101500000000057e-01 -1.935543399999999914e-01 -7.507915499999999465e-02 -2.306754299999999869e-01 -6.914786300000000385e-02 8.774171299999999896e-02 1.227105099999999949e-01 8.289833300000000460e-02 -1.777442300000000100e-02 1.334174999999999944e-01 1.176683200000000068e-01 9.046637000000000428e-02 3.054290399999999850e-01 2.973154299999999917e-01 2.592730599999999996e-01 4.355764999999999776e-01 2.671162899999999785e-01 2.710679599999999967e-01 5.218146200000000068e-01 4.202176400000000034e-01 4.458821700000000221e-01 5.746950400000000458e-01 5.384459499999999510e-01 4.329250399999999832e-01 6.125976800000000333e-01 6.945449099999999598e-01 9.069951299999999828e-01 6.851590100000000128e-01 4.549403599999999881e-01 4.858039699999999739e-01 5.224105500000000291e-01 4.933554600000000234e-01 6.460679400000000072e-01 3.791173199999999799e-01 2.842664599999999986e-01 2.654113799999999745e-01 1.544278500000000054e-01 3.049369100000000055e-01 5.594905900000000099e-01 4.007394400000000023e-01 4.514461399999999958e-01 5.370355500000000282e-01 1.056723999999999997e+00 9.401969799999999600e-01 9.948125599999999569e-01 1.577760599999999958e+00 1.672290199999999949e+00 1.889613500000000057e+00 2.431628100000000181e+00 2.359750000000000014e+00 1.892469399999999968e+00 1.776521400000000028e+00 1.824813000000000018e+00 1.620216600000000007e+00 1.313081799999999966e+00 9.538852500000000179e-01 6.472326299999999755e-01 2.693050200000000061e-01 -7.974248200000000342e-02 -4.370817399999999964e-01 -5.730193399999999881e-01 -4.435050500000000118e-01 -7.209226800000000379e-01 -4.629712799999999850e-01 -4.266419499999999920e-01 -3.716948999999999947e-01 -4.800267599999999968e-01 -5.344998699999999880e-01 -3.580841599999999847e-01 -5.284270699999999987e-01 -5.155747099999999916e-01 -6.461445399999999895e-01 -3.637624700000000044e-01 -2.414949799999999980e-01 -5.064239999999999714e-02 5.147692600000000063e-01 1.390626499999999988e+00 1.826070400000000093e+00 1.240537400000000012e+00 9.116230699999999798e-01 6.316323099999999746e-01 4.229654199999999808e-01 -1.319873000000000018e-01 -8.959097700000000497e-01 -1.222666999999999948e+00 -9.626388900000000248e-01
1.000000000000000000e+00 2.436976800000000054e+00 9.694494700000000353e-01 -1.304488599999999998e+00 -2.823372599999999899e+00 -4.035258899999999649e+00 -3.997678500000000135e+00 -2.695735500000000062e+00 -1.712189200000000078e+00 -1.552758499999999930e+00 -7.085759600000000047e-01 3.415879299999999841e-01 1.785335100000000064e-01 1.498498500000000067e-01 1.835793099999999956e-01 1.281622400000000106e-01 2.089291699999999974e-01 1.089491499999999946e-01 9.619006200000000673e-02 1.184063600000000022e-01 -1.190653700000000037e-01 -1.608110700000000004e-01 -1.253868999999999956e-01 -2.480565799999999987e-01 -3.283877099999999993e-01 -3.360869799999999796e-01 -3.669161400000000017e-01 -3.974645299999999826e-01 -5.024779799999999907e-01 -5.267593200000000309e-01 -6.438266700000000453e-01 -7.858017899999999445e-01 -9.079362300000000108e-01 -9.405522400000000394e-01 -9.950990899999999639e-01 -1.057224900000000023e+00 -1.115833400000000086e+00 -1.262916099999999986e+00 -1.201750899999999955e+00 -1.240469700000000008e+00 -1.149824600000000085e+00 -1.101144799999999924e+00 -1.108339900000000044e+00 -9.379727599999999610e-01 -7.724592099999999517e-01 -5.001388700000000131e-01 -6.320410699999999826e-01 -5.601733800000000540e-01 -4.875971800000000189e-01 -3.016561600000000065e-01 -2.343619799999999975e-01 -1.521332999999999991e-01 -2.985316199999999906e-02 -2.080776600000000098e-03 -5.405316900000000160e-03 5.154477999999999838e-02 1.189789900000000067e-01 -4.237777499999999947e-02 1.158666199999999931e-02 5.271218400000000220e-02 1.517888400000000082e-01 1.990814800000000051e-01 1.777565999999999868e-01 -7.463479500000000030e-03 3.634211299999999811e-01 3.142964699999999945e-01 3.654924299999999793e-01 2.586975899999999773e-01 3.557415800000000017e-01 3.248509299999999822e-01 3.641417699999999757e-01 4.843885199999999891e-01 4.226694400000000074e-01 7.126637200000000005e-01 5.974405999999999883e-01 4.561333000000000193e-01 5.334477800000000380e-01 5.736737699999999718e-01 5.559554599999999569e-01 4.457404200000000261e-01 6.126323000000000185e-01 5.288255899999999565e-01 3.660944400000000210e-01 3.992411200000000049e-01 3.860774499999999887e-01 4.275505499999999737e-01 4.333981299999999925e-01 3.663734900000000239e-01 3.254097899999999766e-01 2.588062300000000260e-01 1.682988800000000118e-01 3.514022500000000271e-01 1.880589699999999920e-01 1.466458700000000115e-01 1.423082800000000092e-01 3.087126299999999948e-02 4.750626699999999786e-02 -7.858670299999999387e-02 -6.433434400000000164e-02 -3.274219500000000171e-02 1.201596800000000048e-01 2.555182500000000023e-01 5.795652100000000528e-01 9.589356900000000072e-01 9.345815200000000544e-01 1.133445599999999942e+00 1.329355300000000017e+00 1.889148100000000108e+00 2.028217000000000159e+00 1.960467600000000088e+00 1.827839100000000050e+00 1.688066800000000089e+00 1.487380200000000041e+00 1.106713099999999894e+00 8.975912900000000416e-01 3.329047299999999820e-01 -2.472794899999999907e-01 -4.842421000000000086e-01 -5.772928600000000188e-01 -6.565696600000000549e-01 -5.159553900000000137e-01 -4.963708399999999799e-01 -6.007727699999999560e-01 -5.575994100000000175e-01 -5.845267400000000446e-01 -5.029992300000000194e-01 -4.321047000000000082e-01 -4.587987800000000171e-01 -5.903743299999999472e-01 -4.864666300000000110e-01 -2.883033400000000190e-01 -3.429899000000000142e-01 -1.261229399999999889e-01 6.028385000000000549e-01 1.049658100000000038e+00 1.197233100000000050e+00 2.079160400000000131e+00 2.612878699999999998e+00 2.358073200000000202e+00 1.189105899999999938e+00 6.311811600000000189e-01
4.000000000000000000e+00 8.365797799999999951e-01 7.106127099999999877e-03 -7.640599000000000141e-01 -1.614419700000000013e+00 -1.947209799999999991e+00 -1.922987100000000060e+00 -1.651930700000000085e+00 -1.131215800000000105e+00 -4.608844300000000116e-01 -3.599395200000000267e-02 3.198559000000000124e-02 1.999083000000000110e-01 5.800474799999999487e-01 8.036071599999999870e-01 8.821550000000000225e-01 8.997114999999999974e-01 9.375281300000000151e-01 9.358030800000000093e-01 8.659910199999999447e-01 8.529342300000000154e-01 7.804453000000000085e-01 8.047016999999999642e-01 9.344212899999999600e-01 9.295698100000000519e-01 8.239131499999999830e-01 7.926425700000000463e-01 7.681198500000000484e-01 7.655800900000000464e-01 6.972522300000000284e-01 6.133094300000000443e-01 6.868878299999999770e-01 6.727952999999999850e-01 6.678189700000000117e-01 6.552220800000000400e-01 6.641004000000000351e-01 6.462925400000000264e-01 5.434905799999999454e-01 3.933307799999999910e-01 3.695851399999999787e-01 4.885635500000000131e-01 4.623499200000000253e-01 4.471428599999999753e-01 3.755195399999999850e-01 2.726308100000000012e-01 1.808176700000000137e-01 1.659947599999999912e-01 1.015608699999999975e-01 6.174899999999999833e-02 1.321704700000000121e-01 3.768537500000000012e-02 1.327409700000000033e-02 3.941222600000000159e-02 -3.815315999999999846e-02 7.915063999999999433e-03 4.645345000000000030e-02 1.534457399999999971e-02 -1.681849300000000033e-02 2.194931699999999944e-02 6.885286100000000131e-02 3.383569300000000002e-02 1.442545500000000092e-01 2.371618299999999901e-01 2.129689800000000022e-01 1.589238099999999987e-01 1.516425999999999885e-01 2.413427099999999881e-01 3.295085500000000112e-01 3.884553299999999876e-01 4.039473100000000039e-01 3.666540600000000039e-01 3.875039499999999859e-01 4.243476899999999996e-01 4.385589200000000187e-01 4.461511699999999858e-01 3.772459799999999808e-01 3.946519900000000081e-01 3.957272700000000198e-01 4.083791600000000188e-01 4.675192400000000026e-01 4.673794499999999741e-01 5.371958900000000092e-01 4.268687700000000085e-01 3.494976100000000141e-01 4.469145500000000215e-01 3.991140000000000243e-01 4.064888799999999969e-01 3.357921899999999904e-01 3.276851100000000017e-01 4.574281099999999989e-01 4.240281300000000031e-01 4.623499200000000253e-01 3.798758199999999752e-01 3.840582200000000057e-01 4.633656500000000178e-01 4.357912800000000031e-01 3.831066599999999878e-01 4.053158000000000039e-01 3.571660799999999969e-01 3.260318500000000119e-01 4.337867999999999724e-01 4.436384299999999725e-01 4.794626300000000008e-01 4.423089700000000235e-01 4.112546899999999783e-01 4.661850000000000160e-01 4.785758700000000143e-01 4.209801000000000237e-01 4.838105999999999796e-01 5.312143499999999463e-01 4.824442800000000031e-01 5.184843999999999564e-01 4.198945099999999986e-01 3.689200799999999836e-01 3.694898600000000033e-01 3.905011400000000243e-01 3.280185500000000198e-01 9.751777500000000098e-02 -2.614151799999999901e-02 -7.286689699999999992e-02 -1.421970300000000020e-01 -1.925523199999999990e-01 -3.344337099999999952e-01 -5.721092599999999528e-01 -7.566000299999999790e-01 -8.819198000000000315e-01 -8.797850400000000182e-01 -8.408507800000000199e-01 -1.005654599999999954e+00 -1.419731599999999982e+00 -1.889043400000000039e+00 -2.381797000000000164e+00 -2.911002199999999984e+00 -3.304165400000000030e+00 -3.795972100000000182e+00 -4.197661499999999712e+00 -3.804209699999999916e+00 -3.178318700000000163e+00 -1.974237500000000090e+00 -1.462691600000000092e+00 -5.253309000000000450e-01
2.000000000000000000e+00 -8.051095000000000335e-01 -1.648836500000000038e+00 -2.045409100000000091e+00 -2.815843699999999838e+00 -2.873146300000000153e+00 -2.624445199999999812e+00 -2.401196500000000178e+00 -2.024576900000000013e+00 -1.606772799999999890e+00 -1.112958600000000020e+00 -6.784422399999999742e-01 -5.462541600000000441e-01 -5.457908799999999783e-01 -3.191242499999999982e-01 7.427363100000000662e-02 3.554405600000000165e-01 4.134498600000000024e-01 3.724417999999999895e-01 4.137531199999999743e-01 4.602375599999999900e-01 4.119194299999999753e-01 3.729418400000000244e-01 4.053805699999999956e-01 4.327000200000000185e-01 4.382571499999999842e-01 4.320723300000000044e-01 3.827627800000000247e-01 3.553984600000000271e-01 4.027608699999999931e-01 4.098713700000000126e-01 4.092441800000000129e-01 4.739194800000000041e-01 4.358638000000000234e-01 3.646953499999999737e-01 4.124465900000000018e-01 4.413538799999999762e-01 4.220396399999999937e-01 4.104625000000000079e-01 3.922740800000000250e-01 3.787451900000000093e-01 3.500097200000000242e-01 3.237217499999999748e-01 3.083176899999999776e-01 2.897848800000000224e-01 3.296120699999999792e-01 4.143386499999999750e-01 4.008843899999999794e-01 3.167013300000000031e-01 2.921117200000000191e-01 2.883130099999999807e-01 2.937645899999999921e-01 2.708808600000000011e-01 2.105807600000000057e-01 2.308143599999999962e-01 2.028221099999999999e-01 1.240348299999999987e-01 2.020018100000000039e-01 2.411309399999999881e-01 1.440259899999999926e-01 1.302413699999999952e-01 1.838001800000000074e-01 1.612808900000000101e-01 9.843887199999999671e-02 1.137718300000000043e-01 1.457020099999999929e-01 1.470894899999999894e-01 2.054592799999999941e-01 1.908258300000000018e-01 1.441875400000000029e-01 2.153675499999999909e-01 2.143759799999999938e-01 2.290448499999999943e-01 2.894732899999999942e-01 2.060697300000000065e-01 2.162875300000000056e-01 3.354460499999999956e-01 3.767410600000000165e-01 4.554134100000000185e-01 5.350471900000000058e-01 5.286458499999999727e-01 5.192611200000000204e-01 5.525014900000000395e-01 6.049459999999999837e-01 6.294608900000000506e-01 6.195442500000000186e-01 6.581444699999999814e-01 7.134154600000000013e-01 6.479929199999999723e-01 6.055532999999999610e-01 7.277691699999999653e-01 8.135412300000000041e-01 7.515863499999999586e-01 6.843936400000000253e-01 6.851503899999999980e-01 7.326145899999999545e-01 7.740475500000000286e-01 7.474595699999999621e-01 7.512621200000000332e-01 7.702950699999999706e-01 7.107677199999999917e-01 7.272611900000000018e-01 7.357899399999999757e-01 7.010620400000000529e-01 7.872699699999999856e-01 7.851263400000000336e-01 7.487885899999999761e-01 8.280412600000000012e-01 8.354283399999999915e-01 8.281593299999999713e-01 8.082399500000000403e-01 7.167741100000000198e-01 7.002815500000000304e-01 6.899509900000000417e-01 5.746995400000000087e-01 4.118527699999999792e-01 3.982560900000000070e-01 5.288334700000000277e-01 4.942960100000000079e-01 4.006601000000000190e-01 3.215603799999999790e-01 1.198078300000000040e-01 4.602218000000000281e-02 1.690576599999999916e-02 -1.242403599999999941e-01 -8.876921499999999854e-02 -7.717694399999999733e-02 -3.596926100000000237e-01 -6.860722099999999601e-01 -1.062535800000000030e+00 -1.626668199999999898e+00 -2.131029499999999910e+00 -2.526356900000000127e+00 -3.103435699999999908e+00 -3.631159400000000037e+00 -3.612797699999999779e+00 -3.136321699999999879e+00 -2.193467500000000125e+00 -1.127995599999999987e+00 -5.311067099999999819e-01 5.306904900000000147e-01
1.000000000000000000e+00 -3.255984399999999890e-01 -2.484569899999999887e+00 -3.675881899999999813e+00 -4.468259699999999945e+00 -3.783163300000000007e+00 -2.846245500000000206e+00 -1.821324900000000024e+00 -1.378764600000000007e+00 -1.233312799999999987e+00 -4.203043799999999774e-01 -1.024437700000000034e-01 -9.350410600000000350e-02 -7.257601800000000603e-02 -1.716684099999999935e-01 -1.004855100000000001e-01 -1.241398600000000046e-01 -1.482769999999999921e-01 -1.438597299999999912e-01 -2.113288799999999967e-01 -1.805159199999999964e-01 -1.946524400000000099e-01 -1.210595899999999947e-01 -2.054233199999999926e-01 -3.488327399999999745e-01 -3.134240300000000201e-01 -1.915171999999999985e-01 -3.352459300000000253e-01 -5.817348599999999648e-01 -5.726748099999999786e-01 -5.055040499999999826e-01 -5.870853499999999503e-01 -6.620458599999999860e-01 -7.308337900000000387e-01 -6.028944999999999999e-01 -5.639406500000000433e-01 -7.551961299999999655e-01 -8.556080000000000352e-01 -7.423226299999999833e-01 -5.847220300000000037e-01 -7.518747500000000361e-01 -7.784477199999999542e-01 -5.758131899999999748e-01 -5.967398499999999606e-01 -4.896847200000000178e-01 -2.004681199999999996e-01 -3.716036499999999989e-03 -2.656622799999999729e-01 -3.855222899999999897e-01 -3.717382399999999976e-01 -1.264714799999999972e-01 -3.607942900000000314e-02 -3.890522600000000109e-02 -1.663398300000000149e-02 4.475720899999999919e-02 -2.701240099999999839e-02 -1.382540499999999895e-01 -1.426913999999999960e-01 -1.146381200000000031e-02 -7.691928700000000285e-02 -2.141915899999999873e-01 -1.891066899999999940e-01 -7.240131099999999598e-02 -2.899495900000000070e-02 1.004547799999999935e-01 7.240085100000000218e-02 5.970882200000000167e-02 5.977362399999999742e-02 7.008610299999999682e-02 2.539153399999999894e-01 3.594821400000000056e-01 3.748689800000000183e-01 3.071706399999999948e-01 5.603882399999999819e-01 6.783474200000000343e-01 3.334222000000000019e-01 1.243916099999999997e-01 4.458044400000000240e-01 5.565793399999999780e-01 6.397377300000000044e-01 4.772024100000000213e-01 3.779975099999999810e-01 4.240285799999999883e-01 3.686477599999999910e-01 3.672345200000000087e-01 3.284433199999999831e-01 2.794381899999999752e-01 4.219681299999999968e-01 4.449125500000000177e-01 3.549544900000000114e-01 4.282165299999999841e-01 2.553027600000000175e-01 2.476825800000000133e-01 2.854540400000000200e-01 5.032688499999999898e-01 7.276217200000000274e-01 6.332862700000000400e-01 6.791890900000000508e-01 1.176184899999999978e+00 1.180902399999999908e+00 1.321920299999999937e+00 1.653682899999999956e+00 2.065694800000000164e+00 2.167594400000000032e+00 1.970124399999999998e+00 1.913676399999999944e+00 1.751153200000000076e+00 1.488466499999999915e+00 1.137168900000000038e+00 9.657551699999999961e-01 7.393092900000000078e-01 1.416654499999999983e-01 -7.345304399999999512e-02 1.238818599999999964e-01 -2.610283999999999938e-01 -4.093830199999999864e-01 -3.525806100000000165e-01 -2.669296199999999786e-01 -1.570252900000000118e-01 -1.679918900000000048e-01 -2.847684799999999905e-01 -1.476716200000000034e-01 -1.405117300000000014e-02 -6.190077199999999974e-02 -1.670523299999999989e-01 -1.793140799999999868e-01 -5.551857000000000320e-03 1.564786999999999983e-01 4.588069599999999859e-01 9.856336199999999881e-01 1.429535699999999965e+00 1.485939700000000085e+00 1.925442199999999993e+00 1.929056600000000010e+00 1.404062499999999991e+00 8.771693499999999588e-01 5.030368600000000301e-01 6.787101800000000518e-01 2.160911299999999924e-01 -6.465035099999999479e-01 -2.518342000000000080e+00
1.000000000000000000e+00 1.396149599999999991e+00 1.318763799999999931e+00 -7.442484499999999503e-01 -2.267078699999999891e+00 -3.128758499999999998e+00 -3.768102100000000121e+00 -3.415206700000000151e+00 -2.330104599999999859e+00 -1.759198999999999957e+00 -1.766801599999999972e+00 -8.585585399999999812e-01 -4.817251599999999856e-01 -4.563186699999999818e-01 -4.517940699999999921e-01 -4.760557200000000155e-01 -5.410891500000000187e-01 -4.695080699999999996e-01 -4.639088699999999732e-01 -4.669573200000000091e-01 -4.584927300000000150e-01 -5.613048800000000060e-01 -5.169110300000000491e-01 -6.001636799999999772e-01 -6.843083199999999700e-01 -6.825312599999999730e-01 -7.118812300000000315e-01 -8.093328699999999820e-01 -6.749939900000000437e-01 -7.787679899999999655e-01 -8.710354900000000233e-01 -8.925225900000000046e-01 -8.858457899999999663e-01 -9.444833299999999543e-01 -1.039009800000000094e+00 -1.054014000000000006e+00 -1.095631800000000045e+00 -1.083230200000000032e+00 -1.053315599999999908e+00 -1.188209899999999930e+00 -1.095601899999999906e+00 -1.042780199999999935e+00 -9.604471300000000378e-01 -8.269882800000000200e-01 -8.619795500000000388e-01 -7.167512299999999614e-01 -6.311352999999999547e-01 -5.499743999999999744e-01 -5.598772499999999930e-01 -3.844693499999999875e-01 -3.886260999999999743e-01 -2.338004300000000035e-01 -2.312666999999999917e-01 -7.472411900000000551e-02 -7.589120400000000377e-02 -1.212314300000000011e-01 -2.118551100000000131e-01 -1.166723100000000013e-01 -9.076485099999999362e-02 -6.919070800000000354e-02 4.848823800000000295e-02 2.279337999999999850e-02 3.757999900000000282e-02 4.383984300000000334e-02 -1.608695699999999895e-02 1.050192800000000065e-01 9.035592000000000623e-02 1.692542200000000108e-01 1.450975800000000038e-01 2.911872899999999875e-01 3.011857099999999954e-01 2.823709300000000200e-01 3.027441300000000002e-01 4.108448299999999942e-01 3.497821600000000086e-01 4.433961599999999836e-01 4.598090799999999811e-01 5.070647000000000348e-01 5.740212300000000489e-01 4.671766299999999816e-01 5.339347199999999738e-01 5.593712100000000076e-01 4.615553199999999912e-01 4.592927900000000063e-01 4.359574500000000241e-01 4.555932400000000104e-01 4.054001300000000252e-01 4.411040500000000253e-01 3.880567899999999848e-01 3.382117499999999777e-01 3.079434500000000074e-01 3.702976700000000232e-01 3.813904499999999920e-01 2.551069899999999779e-01 3.952161399999999936e-01 3.242728400000000066e-01 3.589098900000000092e-01 3.010860599999999887e-01 3.453919500000000031e-01 3.804688800000000093e-01 4.752588999999999841e-01 7.093941099999999667e-01 1.037001899999999921e+00 1.300926400000000038e+00 1.251454800000000089e+00 1.445136699999999941e+00 1.688787700000000003e+00 2.087365899999999996e+00 2.052967399999999998e+00 2.005227099999999929e+00 1.839711899999999956e+00 1.709189300000000022e+00 1.642448700000000095e+00 1.200558599999999920e+00 9.550259199999999726e-01 4.867350699999999919e-01 8.524175999999999975e-02 5.956814199999999754e-02 -3.196863300000000324e-02 -1.110352099999999953e-01 -4.823346900000000104e-02 -6.402581400000000034e-02 -5.645428899999999778e-02 -6.440898200000000351e-02 -3.443355499999999764e-02 -3.752524000000000137e-02 -9.530974999999999864e-02 1.892932500000000032e-02 2.693956899999999828e-03 1.173714500000000022e-01 7.365441200000000244e-02 1.137747900000000006e-01 3.357980400000000198e-01 7.987897200000000364e-01 9.289293499999999870e-01 1.441267400000000087e+00 1.721875100000000103e+00 1.762799299999999958e+00 1.895954799999999940e+00 1.387699699999999980e+00 1.937887200000000032e+00
1.000000000000000000e+00 1.107790000000000052e+00 -2.569990600000000125e+00 -1.559816799999999892e+00 -2.261683300000000063e+00 -1.930483399999999961e+00 -2.080600500000000075e+00 -1.901655600000000002e+00 -1.587257099999999976e+00 -1.518855499999999914e+00 -1.191894100000000067e+00 -1.136778400000000078e+00 -6.115510199999999452e-01 -4.043356100000000120e-01 -7.217382599999999648e-01 -8.161143800000000281e-01 -8.219363800000000220e-01 -5.489456200000000230e-01 -5.487999599999999756e-01 -9.388505700000000509e-01 -1.106183899999999998e+00 -5.704001100000000157e-01 -7.917678200000000110e-01 -7.158260699999999810e-01 -7.304465500000000278e-01 -8.511295100000000335e-01 -5.406670300000000484e-01 -7.414878200000000197e-01 -6.089736199999999933e-01 -7.249582300000000368e-01 -8.046210700000000493e-01 -8.377370800000000228e-01 -9.586788600000000216e-01 -4.950367099999999909e-01 -6.177760199999999813e-01 -5.817061300000000434e-01 -7.524318899999999921e-01 -4.566009200000000212e-01 -5.805445900000000270e-01 -6.517327000000000536e-01 -3.244196400000000091e-01 -6.318635999999999697e-01 -4.419614800000000177e-01 -3.955584899999999848e-01 -4.405156100000000019e-01 -5.013521300000000069e-01 -3.926228299999999782e-01 -3.305889699999999820e-01 -5.475497599999999965e-01 -2.676792800000000194e-01 -3.559206100000000261e-01 -2.304459600000000052e-01 -4.062430699999999839e-01 -5.449303699999999973e-01 -3.745168300000000228e-01 -4.234672299999999723e-01 -4.375820500000000002e-01 -5.433852599999999811e-01 -4.238823500000000188e-01 -4.487782200000000055e-01 -5.313206400000000107e-01 -3.440489999999999937e-01 -1.978572299999999951e-01 -3.356780500000000056e-01 -3.488313499999999845e-01 -4.850644299999999909e-01 -4.567916399999999988e-01 -1.342257099999999981e-01 -2.956640500000000116e-01 -4.131529500000000188e-01 -1.482570400000000066e-01 -3.263853199999999788e-01 -3.290359800000000057e-01 -1.993020100000000017e-01 -1.868063199999999979e-01 -1.164896599999999949e-01 9.180032899999999996e-02 -3.356403799999999743e-02 7.042351299999999314e-02 7.129690199999999534e-02 -1.506162800000000052e-02 -1.201091400000000031e-01 1.488125899999999946e-01 -1.625340200000000013e-02 9.849042299999999361e-02 4.202712499999999851e-02 9.971107699999999519e-02 3.135894000000000181e-01 4.287530500000000244e-02 -5.834116200000000196e-02 1.792419299999999938e-01 1.419459799999999924e-02 1.011930500000000066e-01 1.345081700000000102e-01 1.215710799999999980e-01 5.686764300000000105e-01 7.492901499999999881e-01 1.157177700000000087e+00 1.433816200000000096e+00 1.603651099999999996e+00 1.906825599999999898e+00 2.210050700000000035e+00 2.704105199999999876e+00 2.716145299999999985e+00 2.940153800000000039e+00 2.436385700000000210e+00 2.309466000000000019e+00 2.129588399999999826e+00 1.788537599999999950e+00 1.320547700000000102e+00 1.141689799999999977e+00 8.399108299999999971e-01 6.431377900000000425e-01 3.770313900000000218e-01 9.810034400000000598e-02 2.924626200000000065e-01 4.168597299999999839e-01 3.797616100000000272e-01 5.856300700000000026e-02 1.043843099999999940e-01 1.705164100000000071e-01 -1.792863100000000043e-02 6.726482000000000294e-02 3.431413999999999853e-01 1.866236000000000006e-01 3.825551699999999999e-01 3.636141999999999985e-01 3.259032800000000174e-01 6.087310000000000221e-01 6.752548699999999515e-01 1.367486100000000038e+00 2.091798300000000221e+00 2.009880100000000169e+00 2.088131999999999877e+00 1.381000699999999970e+00 7.376554400000000511e-01 2.735634399999999911e-01 5.211820900000000423e-01 1.381288099999999908e-01 1.672357499999999941e+00 4.747930899999999732e-01
